,Time,Force,GoalForce,Pos,k
0,1732020432.0319357,0.24647438526153564,0.20000000298023224,34.7380485534668,0.04
1,1732020432.0439687,0.242477148771286,0.20000000298023224,34.7352294921875,0.04
2,1732020432.06197,0.24103917181491852,0.24176007509231567,34.733673095703125,0.04
3,1732020432.0749247,0.2396489977836609,0.24176007509231567,34.733673095703125,0.04
4,1732020432.086936,0.23736325651407242,0.24176007509231567,34.733673095703125,0.04
5,1732020432.0989745,0.23505930602550507,0.2681172788143158,34.73396301269531,0.04
6,1732020432.1119363,0.2332172468304634,0.2681172788143158,34.734310150146484,0.04
7,1732020432.1249702,0.23174931854009628,0.2954360246658325,34.73500061035156,0.04
8,1732020432.1379366,0.23313657194375992,0.2954360246658325,34.73545837402344,0.04
9,1732020432.1499367,0.23478637635707855,0.32080328464508057,34.73591995239258,0.04
10,1732020432.1619704,0.23551347106695175,0.32080328464508057,34.736839294433594,0.04
11,1732020432.1749606,0.23676031082868576,0.3451662063598633,34.739139556884766,0.04
12,1732020432.1879365,0.23818854242563248,0.3451662063598633,34.740753173828125,0.04
13,1732020432.199969,0.24022431671619415,0.36958515644073486,34.742591857910156,0.04
14,1732020432.2129378,0.24320583045482635,0.36958515644073486,34.74535369873047,0.04
15,1732020432.2249577,0.25317756086587906,0.3939889967441559,34.751220703125,0.04
16,1732020432.2369633,0.25908034294843674,0.3939889967441559,34.7542724609375,0.04
17,1732020432.2499363,0.2659609317779541,0.4183735251426697,34.75726318359375,0.04
18,1732020432.2619743,0.27324219048023224,0.4183735251426697,34.76071548461914,0.04
19,1732020432.2749236,0.28756050020456314,0.4427482485771179,34.768131256103516,0.04
20,1732020432.286963,0.2951430007815361,0.4427482485771179,34.772159576416016,0.04
21,1732020432.299925,0.30326585471630096,0.4671313762664795,34.776187896728516,0.04
22,1732020432.3119361,0.311870813369751,0.4671313762664795,34.78044509887695,0.04
23,1732020432.3249362,0.33011217415332794,0.4915284812450409,34.78976058959961,0.04
24,1732020432.3369374,0.33907707035541534,0.4915284812450409,34.79487991333008,0.04
25,1732020432.3489697,0.348092645406723,0.5159348845481873,34.79936981201172,0.04
26,1732020432.361936,0.3581226319074631,0.5159348845481873,34.80368423461914,0.04
27,1732020432.3749614,0.37885624170303345,0.5393874049186707,34.812255859375,0.04
28,1732020432.387955,0.3871860057115555,0.5393874049186707,34.81691360473633,0.04
29,1732020432.3999612,0.3943135291337967,0.5647507309913635,34.821571350097656,0.03938011346757413
30,1732020432.4129636,0.40102556347846985,0.5647507309913635,34.82669448852539,0.038811392129957684
31,1732020432.4259245,0.41819262504577637,0.5891461372375488,34.8392333984375,0.037799524776488555
32,1732020432.4379666,0.4295192062854767,0.5891461372375488,34.84613800048828,0.03700480965138973
33,1732020432.450925,0.44173429906368256,0.6144817471504211,34.8520622253418,0.0361348577129379
34,1732020432.4629364,0.4678962826728821,0.6144817471504211,34.86603927612305,0.03534202336110488
35,1732020432.474969,0.48108212649822235,0.6388779282569885,34.872596740722656,0.03462529980097248
36,1732020432.4879248,0.49373407661914825,0.6388779282569885,34.87995910644531,0.03400964467633397
37,1732020432.4999366,0.5065933167934418,0.6623404622077942,34.88853073120117,0.03301870032914248
38,1732020432.5119607,0.5206434726715088,0.6623404622077942,34.896183013916016,0.032164283623705214
39,1732020432.5249252,0.5498411357402802,0.6867044568061829,34.909698486328125,0.031260508959361825
40,1732020432.5369375,0.5633801817893982,0.6867044568061829,34.91551208496094,0.030498877277853116
41,1732020432.5499363,0.5754280090332031,0.711089015007019,34.921146392822266,0.029668098414732835
42,1732020432.5619686,0.5857464075088501,0.711089015007019,34.92810821533203,0.028740257672781187
43,1732020432.574923,0.6053230166435242,0.7354954481124878,34.94197082519531,0.027811379755122455
44,1732020432.5869694,0.6168127357959747,0.7354954481124878,34.94956588745117,0.026961353852972086
45,1732020432.5999248,0.6296884715557098,0.7598780989646912,34.95663833618164,0.02618969281878295
46,1732020432.6119363,0.6437498331069946,0.7598780989646912,34.96354293823242,0.025482039231355988
47,1732020432.624925,0.6717613339424133,0.7842754125595093,34.97890090942383,0.02481052368428946
48,1732020432.6369362,0.6848166584968567,0.7842754125595093,34.98747253417969,0.024171095210730797
49,1732020432.6489367,0.6991613805294037,0.8086711168289185,34.997196197509766,0.0235161215753136
50,1732020432.6619363,0.7157652378082275,0.8086711168289185,35.00697326660156,0.02286868500180047
51,1732020432.674936,0.7539387345314026,0.8321024179458618,35.02457809448242,0.022174522831740984
52,1732020432.6869688,0.7736223042011261,0.8321024179458618,35.03308868408203,0.021432002012166093
53,1732020432.6999366,0.7926254570484161,0.8574731349945068,35.04177474975586,0.020648889000772875
54,1732020432.711968,0.8105163276195526,0.8574731349945068,35.05092239379883,0.019849530575179554
55,1732020432.724936,0.8430030047893524,0.881869375705719,35.06449890136719,0.019276520469042806
56,1732020432.73697,0.8572220206260681,0.881869375705719,35.07094192504883,0.01876749687262161
57,1732020432.7499628,0.8702358603477478,0.9062643647193909,35.07692337036133,0.018467444639215916
58,1732020432.76296,0.8824798166751862,0.9062643647193909,35.08399963378906,0.018251108119615958
59,1732020432.7759612,0.9068557620048523,0.9306861162185669,35.09769058227539,0.018169354563709238
60,1732020432.7879612,0.9197700023651123,0.9306861162185669,35.10517120361328,0.01810535333969248
61,1732020432.8009362,0.933722734451294,0.9560558795928955,35.11224365234375,0.01812886838541674
62,1732020432.8129363,0.9629130363464355,0.9560558795928955,35.126338958740234,0.01816541309141738
63,1732020432.825938,0.977508544921875,0.9804271459579468,35.13381576538086,0.018452815905066932
64,1732020432.8389363,0.9920623600482941,0.9804271459579468,35.14094543457031,0.018715808901058978
65,1732020432.8511193,1.0069538056850433,1.0048245191574097,35.14876937866211,0.018904129702926292
66,1732020432.863133,1.0402987003326416,1.0048245191574097,35.165164947509766,0.019308524054956984
67,1732020432.8761225,1.058939129114151,1.0293970108032227,35.17057418823242,0.020065951583688752
68,1732020432.8881261,1.0763128995895386,1.0293970108032227,35.17695999145508,0.021031505901728836
69,1732020432.901124,1.0910091698169708,1.0537956953048706,35.181331634521484,0.02244086000840196
70,1732020432.9140992,1.1118489503860474,1.0537956953048706,35.18949890136719,0.023675017954590878
71,1732020432.927099,1.1176528334617615,1.0781928300857544,35.19352722167969,0.025174999670698903
72,1732020432.9391084,1.1215065717697144,1.0781928300857544,35.19795608520508,0.02665138753042936
73,1732020432.9511423,1.1257389187812805,1.1035398244857788,35.20158004760742,0.028391380713459726
74,1732020432.964099,1.13744056224823,1.1035398244857788,35.20853805541992,0.030009931718775817
75,1732020432.9761364,1.1441687941551208,1.1270018815994263,35.21193313598633,0.0317769521285318
76,1732020432.9890876,1.1492810249328613,1.1270018815994263,35.215328216552734,0.033339929474224685
77,1732020433.0020876,1.1547563076019287,1.1513917446136475,35.21843338012695,0.03498640341415707
78,1732020433.014123,1.1623469591140747,1.1513917446136475,35.224185943603516,0.036403528373134465
79,1732020433.0261254,1.1662957072257996,1.1767154932022095,35.22677230834961,0.03794873902561575
80,1732020433.0381258,1.170887529850006,1.1767154932022095,35.22936248779297,0.03914590872254053
81,1732020433.0501304,1.1753427982330322,1.2001721858978271,35.231781005859375,0.04049594727390479
82,1732020433.0621934,1.1793498396873474,1.2001721858978271,35.2344856262207,0.041583982726038735
83,1732020433.0751235,1.1855993270874023,1.2235968112945557,35.24040603637695,0.04031921151587478
84,1732020433.0880878,1.1884683966636658,1.2235968112945557,35.243919372558594,0.039586742356203006
85,1732020433.1001263,1.1928184032440186,1.2479857206344604,35.2474250793457,0.03902162131796659
86,1732020433.1130996,1.1993052959442139,1.2479857206344604,35.2514533996582,0.03865614884016259
87,1732020433.125126,1.2172719836235046,1.2723839282989502,35.26002502441406,0.03761962818727502
88,1732020433.1380994,1.228638231754303,1.2723839282989502,35.26451110839844,0.03658346884809978
89,1732020433.1510878,1.2407000064849854,1.2967791557312012,35.26847839355469,0.035424546815720624
90,1732020433.1631222,1.2630752921104431,1.2967791557312012,35.2760124206543,0.0345937823514051
91,1732020433.1751277,1.2727165818214417,1.3221135139465332,35.27998352050781,0.03414121853648783
92,1732020433.188099,1.2815611362457275,1.3221135139465332,35.284645080566406,0.033705519548110616
93,1732020433.2000995,1.2905976176261902,1.3455722332000732,35.289649963378906,0.03335877827798049
94,1732020433.212119,1.301551640033722,1.3455722332000732,35.29534149169922,0.033304114910912994
95,1732020433.2250872,1.3311647772789001,1.369940161705017,35.30794143676758,0.032042638940768677
96,1732020433.2371302,1.3490450382232666,1.369940161705017,35.31467056274414,0.03164841739817611
97,1732020433.2501242,1.3684117794036865,1.3943238258361816,35.31898498535156,0.03157414931938783
98,1732020433.2623372,1.4036009907722473,1.3943238258361816,35.328365325927734,0.031825933431557436
99,1732020433.2751336,1.4174811840057373,1.4187556505203247,35.33273696899414,0.03177574522045697
100,1732020433.2881312,1.4293237328529358,1.4187556505203247,35.336761474609375,0.03177722205293875
101,1732020433.3010995,1.4392799735069275,1.4431604146957397,35.340328216552734,0.031698406238013815
102,1732020433.3131363,1.4545198678970337,1.4431604146957397,35.348262786865234,0.031804049833405894
103,1732020433.3261,1.4618017673492432,1.4684985876083374,35.352638244628906,0.03206692098717888
104,1732020433.3381336,1.469631016254425,1.4684985876083374,35.3570671081543,0.03236768916971385
105,1732020433.3511274,1.4786884784698486,1.4928947687149048,35.360809326171875,0.032767595208229715
106,1732020433.3640878,1.4992180466651917,1.4928947687149048,35.36840057373047,0.033210032901056494
107,1732020433.376088,1.5089364647865295,1.5173169374465942,35.37213897705078,0.033764322448570624
108,1732020433.3890877,1.5174596905708313,1.5173169374465942,35.37582015991211,0.03428787016761222
109,1732020433.4010878,1.5246678590774536,1.541674017906189,35.37898635864258,0.03503030224643873
110,1732020433.4130993,1.5376268029212952,1.541674017906189,35.386287689208984,0.03568082802596146
111,1732020433.426135,1.5449529886245728,1.566069483757019,35.39002990722656,0.03653278092833567
112,1732020433.439133,1.5533223748207092,1.566069483757019,35.393882751464844,0.037358286741008245
113,1732020433.451566,1.562301516532898,1.5905112028121948,35.397735595703125,0.03818084621068527
114,1732020433.4645517,1.582313597202301,1.5905112028121948,35.405731201171875,0.03908239445361515
115,1732020433.4765527,1.5928823351860046,1.6153273582458496,35.409873962402344,0.039947577711400575
116,1732020433.4885905,1.6032106280326843,1.6153273582458496,35.414302825927734,0.040778555032423607
117,1732020433.5015657,1.613331139087677,1.6397099494934082,35.418792724609375,0.04142477740956378
118,1732020433.5136044,1.6358215808868408,1.6397099494934082,35.42701721191406,0.04203384746712177
119,1732020433.526564,1.6484434008598328,1.6641181707382202,35.430641174316406,0.04251775298656579
120,1732020433.5386043,1.6609098315238953,1.6641181707382202,35.43415069580078,0.04288515884406766
121,1732020433.551553,1.671984314918518,1.6885120868682861,35.43737030029297,0.043064689460939776
122,1732020433.5635958,1.6884422898292542,1.6885120868682861,35.4444465637207,0.04315374082942004
123,1732020433.576593,1.695641815662384,1.7128970623016357,35.44801330566406,0.04353745277183528
124,1732020433.5895643,1.7027254700660706,1.7128970623016357,35.45152282714844,0.043922530074035605
125,1732020433.6015644,1.7103451490402222,1.737331509590149,35.45526123046875,0.044436088391347654
126,1732020433.6136043,1.7297543287277222,1.737331509590149,35.46440887451172,0.044998004977289376
127,1732020433.6265945,1.7410275340080261,1.7616993188858032,35.468605041503906,0.045483302275285305
128,1732020433.639553,1.7531346678733826,1.7616993188858032,35.47246170043945,0.04593234951789246
129,1732020433.6515646,1.7655341029167175,1.7861244678497314,35.47568130493164,0.04621852624858975
130,1732020433.6635954,1.78666353225708,1.7861244678497314,35.4822998046875,0.04634967540304863
131,1732020433.6765878,1.794445276260376,1.8104907274246216,35.48557662963867,0.046370604362496765
132,1732020433.6895914,1.801605761051178,1.8104907274246216,35.48879623413086,0.04630449747420165
133,1732020433.702564,1.808458924293518,1.8349090814590454,35.49173355102539,0.046507282945902464
134,1732020433.715553,1.8211143016815186,1.8349090814590454,35.49754333496094,0.046708192804507595
135,1732020433.7275658,1.8272203207015991,1.8602571487426758,35.500587463378906,0.04712489519630567
136,1732020433.7405527,1.83290034532547,1.8602571487426758,35.50398254394531,0.04751310854358699
137,1732020433.7525907,1.8469606637954712,1.8846545219421387,35.51175308227539,0.04568768297168517
138,1732020433.7655904,1.8566066026687622,1.8846545219421387,35.51554489135742,0.04449072894036386
139,1732020433.77859,1.86764794588089,1.9090744256973267,35.519168853759766,0.043673566355523
140,1732020433.7915528,1.879448115825653,1.9090744256973267,35.52296829223633,0.04319066528160857
141,1732020433.803564,1.9013673067092896,1.9344451427459717,35.530330657958984,0.042870403590913
142,1732020433.8166006,1.911228358745575,1.9344451427459717,35.533782958984375,0.04253151976744716
143,1732020433.8295922,1.9210267066955566,1.9588154554367065,35.53706359863281,0.04218123634469853
144,1732020433.842564,1.9304290413856506,1.9588154554367065,35.54010772705078,0.04182429899107527
145,1732020433.8546066,1.9468580484390259,1.9842143058776855,35.5462646484375,0.04168692303595941
146,1732020433.8675876,1.9540977478027344,1.9842143058776855,35.549659729003906,0.04152294686047435
147,1732020433.8795955,1.961035430431366,2.0086240768432617,35.55356979370117,0.04141135646946609
148,1732020433.8925881,1.968881070613861,2.0086240768432617,35.55805587768555,0.04140450850767535
149,1732020433.9055872,1.9927582144737244,2.0330088138580322,35.56697463989258,0.040950045025133865
150,1732020433.9175894,2.008364975452423,2.0330088138580322,35.571746826171875,0.04085168953459005
151,1732020433.9296012,2.0251477360725403,2.0583720207214355,35.57600402832031,0.04089198305356986
152,1732020433.9416902,2.042248249053955,2.0583720207214355,35.5800895690918,0.041044775791303695
153,1732020433.9546618,2.073768377304077,2.081873655319214,35.586761474609375,0.04127644000709329
154,1732020433.9666622,2.0856921672821045,2.081873655319214,35.58980941772461,0.04135595931047446
155,1732020433.9796507,2.095099449157715,2.106260299682617,35.592918395996094,0.04139622232408148
156,1732020433.9916947,2.1020626425743103,2.106260299682617,35.59648513793945,0.04125551780543467
157,1732020434.0046623,2.115307569503784,2.1306450366973877,35.603614807128906,0.04123915940953857
158,1732020434.0166893,2.1241575479507446,2.1306450366973877,35.60758590698242,0.04134369308144062
159,1732020434.029662,2.134293258190155,2.1550519466400146,35.61161422729492,0.041649181002886976
160,1732020434.0416625,2.1456574201583862,2.1550519466400146,35.61627197265625,0.04211162442372312
161,1732020434.0536845,2.1736124753952026,2.1794471740722656,35.62512969970703,0.042480887824947265
162,1732020434.0666885,2.188109815120697,2.1794471740722656,35.62887191772461,0.042862268332828246
163,1732020434.0796545,2.2018091678619385,2.2028889656066895,35.632205963134766,0.04311502907650694
164,1732020434.0916922,2.2138330936431885,2.2028889656066895,35.63565444946289,0.043201717889103514
165,1732020434.1036923,2.231271505355835,2.2282309532165527,35.64250183105469,0.04310983776074042
166,1732020434.116683,2.238039970397949,2.2282309532165527,35.64583969116211,0.04284246922154477
167,1732020434.1296494,2.245249390602112,2.25168776512146,35.64940643310547,0.04249553526001499
168,1732020434.1416914,2.2535593509674072,2.25168776512146,35.65314483642578,0.042136585142230926
169,1732020434.1546867,2.2722240686416626,2.27701735496521,35.660797119140625,0.04192465321065421
170,1732020434.1676505,2.282758116722107,2.27701735496521,35.665283203125,0.04190563433624597
171,1732020434.17969,2.293953776359558,2.3014492988586426,35.66971206665039,0.042094616799866785
172,1732020434.1926627,2.305892586708069,2.3014492988586426,35.673912048339844,0.04245799180208054
173,1732020434.2056632,2.3327585458755493,2.32584810256958,35.681793212890625,0.042881881263897484
174,1732020434.217903,2.3456761837005615,2.32584810256958,35.68553161621094,0.043264519483189885
175,1732020434.2299302,2.35746431350708,2.351193428039551,35.68903732299805,0.043479937368936336
176,1732020434.2419407,2.3681989908218384,2.351193428039551,35.69255065917969,0.04353014019516736
177,1732020434.254901,2.384748935699463,2.3748738765716553,35.698646545410156,0.043453842139729526
178,1732020434.2669387,2.3911014795303345,2.3748738765716553,35.70158004760742,0.04322530342920601
179,1732020434.2799363,2.397231101989746,2.3992409706115723,35.704742431640625,0.04321782303259355
180,1732020434.2929134,2.4033974409103394,2.3992409706115723,35.708255767822266,0.04333758477037176
181,1732020434.3059008,2.417960524559021,2.423671007156372,35.71498489379883,0.04367307237087212
182,1732020434.3179474,2.426510214805603,2.423671007156372,35.71826171875,0.044156944703744545
183,1732020434.3309138,2.4353525638580322,2.449007749557495,35.72148132324219,0.04471344176085594
184,1732020434.3429458,2.4538745880126953,2.449007749557495,35.728614807128906,0.045225142745540764
185,1732020434.3558996,2.463135838508606,2.4734160900115967,35.732242584228516,0.04525056643041929
186,1732020434.3679125,2.4724971055984497,2.4734160900115967,35.73563766479492,0.04486941468196774
187,1732020434.3799129,2.4822282791137695,2.497797727584839,35.738739013671875,0.04484099228511153
188,1732020434.3929124,2.4919135570526123,2.497797727584839,35.741905212402344,0.04487122852501182
189,1732020434.4049356,2.5078787803649902,2.521230459213257,35.747772216796875,0.04456168272105075
190,1732020434.4179125,2.5143609046936035,2.521230459213257,35.750823974609375,0.04449198938614623
191,1732020434.4309123,2.5208786725997925,2.5456480979919434,35.75404357910156,0.04460186926013079
192,1732020434.4429522,2.5355021953582764,2.5456480979919434,35.76100158691406,0.04475465305881959
193,1732020434.4558992,2.5451160669326782,2.5709969997406006,35.764739990234375,0.04468357016060289
194,1732020434.467942,2.555831551551819,2.5709969997406006,35.76859664916992,0.04450411639583292
195,1732020434.4809334,2.5671857595443726,2.595379590988159,35.772911071777344,0.044173682111252985
196,1732020434.4938998,2.5954302549362183,2.595379590988159,35.7822265625,0.043928361872806826
197,1732020434.505901,2.6124602556228638,2.6198086738586426,35.78636932373047,0.04375925684569002
198,1732020434.5179372,2.6294658184051514,2.6198086738586426,35.790225982666016,0.04370468802390445
199,1732020434.530901,2.644786834716797,2.6441726684570312,35.793678283691406,0.04375924309019401
200,1732020434.542936,2.668574333190918,2.6441726684570312,35.80069351196289,0.04384601390293975
201,1732020434.5549388,2.6780556440353394,2.6685681343078613,35.80397415161133,0.043955873184785894
202,1732020434.5679386,2.6867085695266724,2.6685681343078613,35.80702209472656,0.043897557541774795
203,1732020434.5809057,2.69469678401947,2.6920249462127686,35.80995559692383,0.044101762728435176
204,1732020434.5929382,2.7101298570632935,2.6920249462127686,35.816341400146484,0.04428252097059105
205,1732020434.605936,2.7178574800491333,2.7173643112182617,35.82025146484375,0.04460850223382247
206,1732020434.6179404,2.726167678833008,2.7173643112182617,35.82450866699219,0.04507120950055062
