,Time,Force,GoalForce,Pos,k
0,1732177057.865191,0.2284628301858902,0.20000000298023224,34.06449508666992,0.04
1,1732177057.8771932,0.25023963302373886,0.20000000298023224,34.108158111572266,0.04
2,1732177057.889205,0.25205016881227493,0.20000000298023224,34.111663818359375,0.04
3,1732177057.9021935,0.2538585141301155,0.25023964047431946,34.12006378173828,0.04
4,1732177057.9142425,0.2547147423028946,0.25023964047431946,34.1243782043457,0.04
5,1732177057.9272113,0.25619732588529587,0.2797776460647583,34.1293830871582,0.04
6,1732177057.9401932,0.25805996358394623,0.2797776460647583,34.13444519042969,0.04
7,1732177057.9522152,0.2638252079486847,0.30444756150245667,34.145259857177734,0.04
8,1732177057.965239,0.26695650815963745,0.30444756150245667,34.151527404785156,0.04
9,1732177057.9782197,0.2714909464120865,0.32910388708114624,34.15739822387695,0.04
10,1732177057.9912388,0.2784983366727829,0.32910388708114624,34.16987991333008,0.04
11,1732177058.0032566,0.2820092737674713,0.35474690794944763,34.1770133972168,0.04
12,1732177058.016245,0.286112904548645,0.35474690794944763,34.18403244018555,0.04
13,1732177058.0292485,0.29126016795635223,0.379435658454895,34.19162368774414,0.04
14,1732177058.0422409,0.30441512167453766,0.379435658454895,34.209861755371094,0.04
15,1732177058.054241,0.3102433383464813,0.40506622195243835,34.218257904052734,0.04
16,1732177058.0672376,0.31602320075035095,0.40506622195243835,34.22694396972656,0.04
17,1732177058.0802047,0.32235220074653625,0.4297112226486206,34.235111236572266,0.04
18,1732177058.0922408,0.3334772139787674,0.4297112226486206,34.252830505371094,0.04
19,1732177058.1052318,0.33819593489170074,0.4553140699863434,34.26076889038086,0.04
20,1732177058.1182046,0.3433118164539337,0.4553140699863434,34.268821716308594,0.04
21,1732177058.1302433,0.35299430787563324,0.47999316453933716,34.283721923828125,0.04
22,1732177058.1422446,0.3565684109926224,0.47999316453933716,34.292236328125,0.04
23,1732177058.1552415,0.358739897608757,0.504656970500946,34.30160903930664,0.04
24,1732177058.1672575,0.3603797107934952,0.504656970500946,34.311676025390625,0.04
25,1732177058.1802475,0.3632250428199768,0.5293076634407043,34.32053756713867,0.04
26,1732177058.1932442,0.3747890293598175,0.5293076634407043,34.3414192199707,0.04
27,1732177058.2062414,0.38277581334114075,0.5539660453796387,34.353729248046875,0.04
28,1732177058.219209,0.39231283962726593,0.5539660453796387,34.3659782409668,0.04
29,1732177058.2322037,0.41102123260498047,0.5795985460281372,34.38697814941406,0.03745806558430195
30,1732177058.2442255,0.4198076128959656,0.5795985460281372,34.39738845825195,0.0351270806953311
31,1732177058.2562375,0.42847247421741486,0.605199933052063,34.40895080566406,0.03290509174376727
32,1732177058.2682385,0.43696852028369904,0.605199933052063,34.419708251953125,0.030901678656280046
33,1732177058.2802985,0.4538382440805435,0.6288996338844299,34.4432373046875,0.029001588862901932
34,1732177058.2932613,0.46281394362449646,0.6288996338844299,34.45600509643555,0.027166208095937377
35,1732177058.3062446,0.4716513752937317,0.6526260375976562,34.470672607421875,0.025375706282337967
36,1732177058.3191936,0.48116981983184814,0.6526260375976562,34.486263275146484,0.023665167422962603
37,1732177058.3311937,0.504233255982399,0.678211510181427,34.521812438964844,0.022006166149487274
38,1732177058.3432398,0.5183552354574203,0.678211510181427,34.5391845703125,0.020434745990240734
39,1732177058.355246,0.5337993204593658,0.7028137445449829,34.55696105957031,0.018941975328404453
40,1732177058.368205,0.5504170358181,0.7028137445449829,34.57847595214844,0.0175720556409616
41,1732177058.380208,0.588001549243927,0.7265317440032959,34.62144470214844,0.01628323427198458
42,1732177058.3932056,0.6104415059089661,0.7265317440032959,34.64445495605469,0.01508690565921183
43,1732177058.4062002,0.634984701871872,0.7511466145515442,34.66890335083008,0.013972997051602444
44,1732177058.4191933,0.6608200669288635,0.7511466145515442,34.69478988647461,0.012957438390553749
45,1732177058.4312043,0.7131671011447906,0.776777446269989,34.74667739868164,0.012019378252939066
46,1732177058.4442053,0.740098387002945,0.776777446269989,34.77204513549805,0.011151071256763352
47,1732177058.4562411,0.7671937942504883,0.8014340400695801,34.79781723022461,0.010352749849401367
48,1732177058.4691935,0.7954630851745605,0.8014340400695801,34.825313568115234,0.009619446686506975
49,1732177058.4811935,0.8551695942878723,0.8261227607727051,34.88231658935547,0.008945826867536344
50,1732177058.493206,0.8855014741420746,0.8261227607727051,34.90964126586914,0.008320894033781263
51,1732177058.5062046,0.9164607524871826,0.8507282137870789,34.93408966064453,0.007758832157988762
52,1732177058.519218,0.9470433592796326,0.8507282137870789,34.95969009399414,0.007247372888108565
53,1732177058.5322418,1.0035971701145172,0.8753916025161743,35.01094055175781,0.006815927588080293
54,1732177058.5442462,1.0303756296634674,0.8753916025161743,35.035221099853516,0.006416302960002356
55,1732177058.5572407,1.0564839839935303,0.9000937938690186,35.0560417175293,0.006110133681677819
56,1732177058.5702229,1.0812336802482605,0.9000937938690186,35.07554244995117,0.005809085956610478
57,1732177058.5832052,1.1225533485412598,0.9257182478904724,35.11011505126953,0.005697415299472722
58,1732177058.595215,1.138464629650116,0.9257182478904724,35.126220703125,0.005567146871394675
59,1732177058.6081924,1.152545988559723,0.9513217210769653,35.14094543457031,0.005695806576451743
60,1732177058.6202254,1.1814061403274536,0.9513217210769653,35.174198150634766,0.005797333939276115
61,1732177058.6323202,1.1979662775993347,0.9759616255760193,35.18679428100586,0.006938834047378876
62,1732177058.6462052,1.2137771844863892,0.9759616255760193,35.19905090332031,0.007850732927973668
63,1732177058.6582053,1.2261382341384888,0.9997538924217224,35.20572280883789,0.009619576916505931
64,1732177058.6702375,1.230355679988861,0.9997538924217224,35.218257904052734,0.010899712944397365
65,1732177058.6832266,1.2218146324157715,1.02527916431427,35.22384262084961,0.013090513546200722
66,1732177058.6961932,1.2078843712806702,1.02527916431427,35.230857849121094,0.014751167505024787
67,1732177058.7082248,1.192301094532013,1.0499526262283325,35.239601135253906,0.016261966668700202
68,1732177058.7202337,1.1745561957359314,1.0499526262283325,35.258758544921875,0.01782645953577908
69,1732177058.732234,1.1734497547149658,1.0746033191680908,35.267215728759766,0.019216623585362604
70,1732177058.7451932,1.1751720905303955,1.0746033191680908,35.276302337646484,0.02059604862118307
71,1732177058.757241,1.1783761978149414,1.0982787609100342,35.286136627197266,0.021882052470307438
72,1732177058.7702048,1.1820226907730103,1.0982787609100342,35.29637908935547,0.023170861824507318
73,1732177058.7822125,1.1923616528511047,1.1229380369186401,35.31501770019531,0.023528585299093845
74,1732177058.7962055,1.1988544464111328,1.1229380369186401,35.32341384887695,0.023854087931727757
75,1732177058.808229,1.20404851436615,1.1495260000228882,35.33095169067383,0.024111344196929386
76,1732177058.820238,1.2094452381134033,1.1495260000228882,35.347232818603516,0.024419047708988652
77,1732177058.8322546,1.2122498154640198,1.1732171773910522,35.35499572753906,0.02479555415422958
78,1732177058.845239,1.2157172560691833,1.1732171773910522,35.36259078979492,0.024785722224216836
79,1732177058.8572466,1.2199310064315796,1.1969088315963745,35.370182037353516,0.02459569250342355
80,1732177058.8702395,1.225124478340149,1.1969088315963745,35.3780632019043,0.024481688959572666
81,1732177058.8832188,1.23775053024292,1.2215534448623657,35.39440155029297,0.023829470781839446
82,1732177058.896207,1.2454417943954468,1.2215534448623657,35.403202056884766,0.023468143194934624
83,1732177058.9082582,1.254119873046875,1.2471644878387451,35.4122314453125,0.023116602368671503
84,1732177058.9212477,1.2728773355484009,1.2471644878387451,35.43092727661133,0.02290555398242367
85,1732177058.934241,1.2823719382286072,1.2718558311462402,35.44053268432617,0.022812378389328952
86,1732177058.9471936,1.2915563583374023,1.2718558311462402,35.45100402832031,0.02271744860651216
87,1732177058.9591937,1.3004093170166016,1.2974773645401,35.46153259277344,0.022594126158435236
88,1732177058.9712262,1.3194016814231873,1.2974773645401,35.48149108886719,0.022434580707680365
89,1732177058.9832585,1.3299288749694824,1.3220831155776978,35.490638732910156,0.02234364640784071
90,1732177058.9962049,1.3394345045089722,1.3220831155776978,35.500648498535156,0.02231177080784863
91,1732177059.0092037,1.347804307937622,1.3458133935928345,35.51048278808594,0.02245061149401628
92,1732177059.0212092,1.3618592023849487,1.3458133935928345,35.52958297729492,0.022722652072040706
93,1732177059.0352068,1.368862271308899,1.371397852897644,35.53849792480469,0.02308650044142765
94,1732177059.0482326,1.3762069940567017,1.371397852897644,35.54850769042969,0.023479553856309315
95,1732177059.0602417,1.3910872340202332,1.3911319971084595,35.569847106933594,0.023445716766586355
96,1732177059.0732424,1.4000977277755737,1.4108668565750122,35.57910919189453,0.023361649566653774
97,1732177059.0862057,1.4092921018600464,1.4108668565750122,35.58860397338867,0.02296641971507377
98,1732177059.0982063,1.4171055555343628,1.4345463514328003,35.5984992980957,0.02305716523532903
99,1732177059.1111999,1.4319350719451904,1.4345463514328003,35.62041473388672,0.02305787428323778
100,1732177059.1232386,1.441336989402771,1.4591631889343262,35.63071060180664,0.02310309539679604
101,1732177059.1352603,1.4510823488235474,1.4591631889343262,35.64152526855469,0.023037385579442238
102,1732177059.148245,1.46083402633667,1.4838474988937378,35.65216827392578,0.023052093173410226
103,1732177059.1612475,1.4816694259643555,1.4838474988937378,35.67500305175781,0.023053862633120176
104,1732177059.1742392,1.492311179637909,1.5085062980651855,35.68656539916992,0.02317162888361021
105,1732177059.1871936,1.5030272603034973,1.5085062980651855,35.697322845458984,0.02339143376451436
106,1732177059.1992412,1.5126904249191284,1.5341389179229736,35.70756530761719,0.02373231656910512
107,1732177059.2122767,1.528201162815094,1.5341389179229736,35.729248046875,0.024085657105399963
108,1732177059.2252283,1.5353413820266724,1.558793544769287,35.73965835571289,0.02443489195157927
109,1732177059.237239,1.5424177646636963,1.558793544769287,35.74944305419922,0.024737925183026567
110,1732177059.2492824,1.5485575199127197,1.5844192504882812,35.75950622558594,0.025085169651730573
111,1732177059.2632048,1.5631611943244934,1.5844192504882812,35.78286361694336,0.02541756521489356
112,1732177059.2762048,1.5729768872261047,1.608138918876648,35.7940788269043,0.025807916887040146
113,1732177059.288205,1.5839029550552368,1.608138918876648,35.80449295043945,0.026243513614626415
114,1732177059.3002374,1.604197084903717,1.6337313652038574,35.82744598388672,0.026134351044021564
115,1732177059.3125842,1.6122689843177795,1.6337313652038574,35.837913513183594,0.02607252447228657
116,1732177059.3252048,1.6189976930618286,1.6583856344223022,35.847347259521484,0.025888957627901672
117,1732177059.3372052,1.6246756315231323,1.6583856344223022,35.85712814331055,0.02562720172699324
118,1732177059.3492053,1.6293281316757202,1.683005928993225,35.86696243286133,0.025668304500842374
119,1732177059.3622048,1.6398815512657166,1.683005928993225,35.887786865234375,0.025578495938656583
120,1732177059.3751934,1.6477746367454529,1.7066726684570312,35.897682189941406,0.025503917220900525
121,1732177059.3872552,1.6564260125160217,1.7066726684570312,35.90872573852539,0.025336345598402678
122,1732177059.400246,1.6653064489364624,1.7322994470596313,35.9212646484375,0.025136900639804952
123,1732177059.4122574,1.6875433325767517,1.7322994470596313,35.94686508178711,0.0250232444968278
124,1732177059.4252377,1.7010462880134583,1.7570037841796875,35.96003723144531,0.024939939537625442
125,1732177059.4382384,1.7153235077857971,1.7570037841796875,35.97343826293945,0.024981829479915736
126,1732177059.4512048,1.7417959570884705,1.7816481590270996,35.99696731567383,0.024841713381334698
127,1732177059.4632401,1.7510339617729187,1.7816481590270996,36.007781982421875,0.024566207615308068
128,1732177059.4762683,1.7570913434028625,1.8072541952133179,36.01848220825195,0.023887222554777952
129,1732177059.4891925,1.7608108520507812,1.8072541952133179,36.02952575683594,0.023164131422187293
130,1732177059.5012305,1.7669519186019897,1.8319692611694336,36.053741455078125,0.022473312404166522
131,1732177059.5132332,1.7736916542053223,1.8319692611694336,36.066627502441406,0.021677619039038597
132,1732177059.5262382,1.7837507724761963,1.8565844297409058,36.08072280883789,0.02075035216869692
133,1732177059.5391936,1.7967734932899475,1.8565844297409058,36.097232818603516,0.01979217742349309
134,1732177059.5512052,1.8302478790283203,1.8812445402145386,36.127262115478516,0.01876748150109293
135,1732177059.5632713,1.8467938303947449,1.8812445402145386,36.14255905151367,0.017771116306057946
136,1732177059.5762386,1.8611695170402527,1.9058643579483032,36.15688705444336,0.016832756114457288
137,1732177059.5891936,1.873855471611023,1.9058643579483032,36.17103576660156,0.01593080351870141
138,1732177059.6012414,1.8956407308578491,1.9305497407913208,36.20405578613281,0.015069844271205796
139,1732177059.6142046,1.907195806503296,1.9305497407913208,36.22085189819336,0.014231749500748157
140,1732177059.6282036,1.9205592274665833,1.955204963684082,36.241676330566406,0.013422027696743583
141,1732177059.6411934,1.9589807391166687,1.955204963684082,36.280967712402344,0.012647776539243736
142,1732177059.653239,1.9823212623596191,1.9817924499511719,36.30121612548828,0.012083678167045843
143,1732177059.666209,2.0043381452560425,1.9817924499511719,36.319393157958984,0.01157393243363267
144,1732177059.6782098,2.0229350328445435,2.0064797401428223,36.336708068847656,0.011310731051422052
145,1732177059.692206,2.048500716686249,2.0064797401428223,36.37616729736328,0.01102723785763105
146,1732177059.705198,2.0579991936683655,2.0311033725738525,36.39750671386719,0.010848483482227804
147,1732177059.7181938,2.068596839904785,2.0311033725738525,36.4193115234375,0.010649042388104869
148,1732177059.7302053,2.098875045776367,2.0577163696289062,36.461246490478516,0.01034662968282712
149,1732177059.742241,2.1162625551223755,2.0577163696289062,36.48046112060547,0.010030232300145738
150,1732177059.7542434,2.1322636008262634,2.082376003265381,36.50117111206055,0.009705189180180412
151,1732177059.7672384,2.1457671523094177,2.082376003265381,36.521934509277344,0.009396490016330764
152,1732177059.780238,2.156512439250946,2.1060798168182373,36.54039764404297,0.00922244907952799
153,1732177059.7922397,2.1689956188201904,2.1060798168182373,36.584346771240234,0.008995033629945996
154,1732177059.80523,2.174962043762207,2.1317131519317627,36.60672378540039,0.008846570630635693
155,1732177059.8172529,2.1814008951187134,2.1317131519317627,36.62973403930664,0.00867967698404122
156,1732177059.8302057,2.187497854232788,2.156357526779175,36.651710510253906,0.008560450865810473
157,1732177059.8422058,2.1865051984786987,2.156357526779175,36.7003173828125,0.008426246805326961
158,1732177059.8552048,2.1710543036460876,2.180986166000366,36.72919464111328,0.00832040501088216
159,1732177059.8681936,2.140609622001648,2.180986166000366,36.76066207885742,0.008223860494348234
160,1732177059.8802125,2.026202917098999,2.2056379318237305,36.84130859375,0.0080419356196846
161,1732177059.892254,1.9450249075889587,2.2056379318237305,36.895267486572266,0.007751030995225201
162,1732177059.9052434,1.8678656816482544,2.230297803878784,36.960784912109375,0.00731429480279263
163,1732177059.9181933,1.8273081183433533,2.230297803878784,37.03746795654297,0.00680954846883365
164,1732177059.930205,1.8404884338378906,2.2549805641174316,37.215965270996094,0.006267728290229725
165,1732177059.9422078,1.9044771790504456,2.2549805641174316,37.30478286743164,0.005746858456189651
166,1732177059.9542384,1.9838164448738098,2.279595375061035,37.3941764831543,0.005266062423276725
167,1732177059.9662433,2.0599284768104553,2.279595375061035,37.48011779785156,0.004822096303804134
168,1732177059.9782517,2.1217721104621887,2.3032944202423096,37.55679702758789,0.004462205008766873
169,1732177059.9912367,2.1994206309318542,2.3032944202423096,37.723388671875,0.004103744896741352
170,1732177060.0042279,2.2263001203536987,2.3269739151000977,37.81071090698242,0.0038096750761307547
171,1732177060.0162578,2.254210591316223,2.3269739151000977,37.89889144897461,0.00352245837550869
172,1732177060.0292335,2.284763813018799,2.3525891304016113,37.97954559326172,0.0032978549534217454
173,1732177060.0421999,2.3403069972991943,2.3525891304016113,38.16316223144531,0.0030720531718591696
174,1732177060.0542064,2.362836241722107,2.3772470951080322,38.25640869140625,0.0028914580038370053
175,1732177060.0662618,2.383814215660095,2.3772470951080322,38.35040283203125,0.0027085854922918704
176,1732177060.079205,2.4034125804901123,2.4018726348876953,38.440486907958984,0.0025635438498650396
177,1732177060.0912447,2.440504550933838,2.4018726348876953,38.64274215698242,0.0024103294004055326
178,1732177060.1032772,2.4558879137039185,2.4265239238739014,38.7452507019043,0.0022940220666574657
179,1732177060.1172059,2.4691492319107056,2.4265239238739014,38.85201644897461,0.002172952652288725
180,1732177060.1302056,2.4825048446655273,2.450261354446411,38.95498275756836,0.0020849878828979283
181,1732177060.1422238,2.5149762630462646,2.450261354446411,39.18387222290039,0.0019778530561930015
182,1732177060.1542392,2.5321900844573975,2.4768154621124268,39.299495697021484,0.0019044710610477099
183,1732177060.1672049,2.548814535140991,2.4768154621124268,39.41644287109375,0.0018171377435886535
184,1732177060.179245,2.5658308267593384,2.5005147457122803,39.525569915771484,0.0017604125460927492
185,1732177060.192246,2.6013479232788086,2.5005147457122803,39.762855529785156,0.0016804665575369275
186,1732177060.2052355,2.616751551628113,2.5251729488372803,39.88089370727539,0.0016262596626716026
187,1732177060.2172391,2.6329907178878784,2.5251729488372803,39.99559783935547,0.0015611472212198824
188,1732177060.23024,2.649133563041687,2.550802230834961,40.10270690917969,0.0015224008549569652
189,1732177060.24328,2.6745243072509766,2.550802230834961,40.33493423461914,0.0014655276423083488
190,1732177060.25625,2.681158185005188,2.5754592418670654,40.452510833740234,0.00143178274519474
191,1732177060.2692482,2.687672257423401,2.5754592418670654,40.574581146240234,0.0013878337594283882
192,1732177060.2822285,2.7245190143585205,2.601107597351074,40.812442779541016,0.001348152011196756
193,1732177060.2942362,2.7521822452545166,2.601107597351074,40.92179870605469,0.0013030835411776843
194,1732177060.3072145,2.775320529937744,2.6267249584198,41.01544952392578,0.0012736117755953737
195,1732177060.3212056,2.779410481452942,2.6267249584198,41.2106819152832,0.0012356110398155542
196,1732177060.3332438,2.7706366777420044,2.6513636112213135,41.32769012451172,0.0012196726295924567
197,1732177060.3461986,2.772972822189331,2.6513636112213135,41.45320510864258,0.0011983139324778065
198,1732177060.358205,2.7958284616470337,2.6770310401916504,41.573665618896484,0.0011924217188032339
199,1732177060.3702068,2.849984645843506,2.6770310401916504,41.78822708129883,0.0011702282719244243
200,1732177060.3822274,2.8407593965530396,2.7016451358795166,41.882686614990234,0.0011693541405473364
201,1732177060.3942394,2.805104374885559,2.7016451358795166,42.000205993652344,0.001155316029205848
202,1732177060.4071937,2.771751880645752,2.7253334522247314,42.15529251098633,0.0011451265089645348
203,1732177060.4192245,2.7724355459213257,2.7253334522247314,42.344261169433594,0.0011263195286055083
204,1732177060.4321938,2.8779749870300293,2.749952793121338,42.6647834777832,0.0011088675437928444
205,1732177060.444239,2.9142467975616455,2.749952793121338,42.76792526245117,0.0010895892983692472
