,Time,Force,GoalForce,Pos,k
0,1732177128.4002752,0.20392833650112152,0.20000000298023224,34.05586624145508,0.04
1,1732177128.4122767,0.22857514768838882,0.20000000298023224,34.096134185791016,0.04
2,1732177128.4252772,0.23084833472967148,0.20000000298023224,34.099239349365234,0.04
3,1732177128.4382885,0.2365451529622078,0.23374421894550323,34.106143951416016,0.04
4,1732177128.4503253,0.23865320533514023,0.23374421894550323,34.10976791381836,0.04
5,1732177128.463291,0.2405410259962082,0.23374421894550323,34.113101959228516,0.04
6,1732177128.4762902,0.24241682887077332,0.2584669589996338,34.11667251586914,0.04
7,1732177128.4892879,0.24531753361225128,0.2584669589996338,34.12541580200195,0.04
8,1732177128.50132,0.24818526953458786,0.28409478068351746,34.13053512573242,0.04
9,1732177128.5142877,0.2525792270898819,0.28409478068351746,34.13554000854492,0.04
10,1732177128.5262887,0.2575343921780586,0.3087993860244751,34.1410026550293,0.04
11,1732177128.538322,0.26229411363601685,0.3087993860244751,34.14796447753906,0.04
12,1732177128.5513186,0.2716638594865799,0.3334440290927887,34.1610221862793,0.04
13,1732177128.563361,0.2762593999505043,0.3334440290927887,34.16752243041992,0.04
14,1732177128.5762885,0.28160689771175385,0.35814887285232544,34.17402267456055,0.04
15,1732177128.5893207,0.28749780356884,0.35814887285232544,34.180580139160156,0.04
16,1732177128.6022897,0.29870568215847015,0.38279446959495544,34.194557189941406,0.04
17,1732177128.6153193,0.3041961044073105,0.38279446959495544,34.201229095458984,0.04
18,1732177128.6283023,0.30901095271110535,0.40845802426338196,34.207271575927734,0.04
19,1732177128.6422894,0.3169078826904297,0.40845802426338196,34.21998596191406,0.04
20,1732177128.6543272,0.3199455440044403,0.4341328740119934,34.22579574584961,0.04
21,1732177128.6673317,0.3228849470615387,0.4341328740119934,34.23160171508789,0.04
22,1732177128.6803217,0.3304259032011032,0.4598197638988495,34.2462158203125,0.04
23,1732177128.6933045,0.33476686477661133,0.4598197638988495,34.25444030761719,0.04
24,1732177128.7053194,0.3392821401357651,0.4854767322540283,34.26301193237305,0.04
25,1732177128.7173274,0.34451013803482056,0.4854767322540283,34.27117919921875,0.04
26,1732177128.7293293,0.35679806768894196,0.5052191019058228,34.28964614868164,0.04
27,1732177128.742322,0.36373740434646606,0.5052191019058228,34.300113677978516,0.04
28,1732177128.7553306,0.37180353701114655,0.5318275094032288,34.31144714355469,0.04
29,1732177128.768288,0.3806639611721039,0.5318275094032288,34.32053756713867,0.04
30,1732177128.7802885,0.3968636989593506,0.5595115423202515,34.33934783935547,0.03715212760865689
31,1732177128.7923214,0.4044457823038101,0.5595115423202515,34.34935760498047,0.03462994577139617
32,1732177128.8043242,0.4116969406604767,0.5841453671455383,34.35896301269531,0.03237178523451091
33,1732177128.8163242,0.41943293809890747,0.5841453671455383,34.36896896362305,0.030309109996497642
34,1732177128.8283718,0.4285377562046051,0.6078689098358154,34.37852096557617,0.028659812310999642
35,1732177128.8422887,0.44685155153274536,0.6078689098358154,34.40107345581055,0.027180222917049537
36,1732177128.855327,0.45613138377666473,0.6316042542457581,34.4132080078125,0.02581648316095717
37,1732177128.868277,0.4654650241136551,0.6316042542457581,34.42741394042969,0.02460817028457326
38,1732177128.88033,0.4868980646133423,0.657183825969696,34.45663833618164,0.023345653044054532
39,1732177128.8932755,0.5005096793174744,0.657183825969696,34.47401428222656,0.022195134380641243
40,1732177128.9052887,0.5157425105571747,0.682887852191925,34.4890251159668,0.02106187498794436
41,1732177128.9173214,0.5316978096961975,0.682887852191925,34.505821228027344,0.019997983108995313
42,1732177128.9302883,0.5664864778518677,0.7075223326683044,34.54166030883789,0.018820386355553227
43,1732177128.9422889,0.5839524567127228,0.7075223326683044,34.559608459472656,0.017532460416124006
44,1732177128.9543052,0.6016035676002502,0.7321973443031311,34.579280853271484,0.01623843994343198
45,1732177128.9663236,0.6204846203327179,0.7321973443031311,34.598724365234375,0.015058800123070924
46,1732177128.979289,0.6407408714294434,0.7559023499488831,34.61880111694336,0.014188238615410253
47,1732177128.9922886,0.68502277135849,0.7559023499488831,34.66355514526367,0.013361685806170157
48,1732177129.0052862,0.7091901898384094,0.7805617451667786,34.68593215942383,0.012682480272193299
49,1732177129.0172877,0.7345080673694611,0.7805617451667786,34.708595275878906,0.012020468339582872
50,1732177129.0302768,0.7864292562007904,0.8062213063240051,34.752201080322266,0.01142696751304918
51,1732177129.04232,0.8127291798591614,0.8062213063240051,34.77307891845703,0.010834208127320886
52,1732177129.0553164,0.8388333320617676,0.8308873772621155,34.795570373535156,0.010277749045381916
53,1732177129.0682888,0.8655144572257996,0.8308873772621155,34.818809509277344,0.00973636350216565
54,1732177129.080291,0.9223107993602753,0.8556019067764282,34.86155319213867,0.009182693842191378
55,1732177129.092324,0.9500135183334351,0.8556019067764282,34.8800163269043,0.00862671746109922
56,1732177129.104335,0.9757029414176941,0.8802521228790283,34.89739227294922,0.008139619634144002
57,1732177129.117323,0.9987645447254181,0.8802521228790283,34.91436004638672,0.007708176322624827
58,1732177129.1303241,1.0391605198383331,0.903984010219574,34.949737548828125,0.0073876640050969215
59,1732177129.1433208,1.0593833923339844,0.903984010219574,34.9652099609375,0.007070736253204497
60,1732177129.1562817,1.0792757868766785,0.9296355247497559,34.97947692871094,0.006873608117350237
61,1732177129.169277,1.097632348537445,0.9296355247497559,34.996334075927734,0.006649644314913419
62,1732177129.1812887,1.129139006137848,0.9552560448646545,35.017330169677734,0.006803171517403544
63,1732177129.1942768,1.140236735343933,0.9552560448646545,35.027278900146484,0.006941481879608292
64,1732177129.2063317,1.1480957865715027,0.979938268661499,35.03596496582031,0.007551794474205189
65,1732177129.221282,1.1550237536430359,0.979938268661499,35.047183990478516,0.00807881151874138
66,1732177129.2333362,1.1715542078018188,1.004656195640564,35.06668472290039,0.00889419152801579
67,1732177129.2462895,1.1812968850135803,1.004656195640564,35.076175689697266,0.009619320454883685
68,1732177129.2592835,1.1914432048797607,1.0303244590759277,35.08480453491211,0.010504007546026805
69,1732177129.2722769,1.2109017968177795,1.0303244590759277,35.10499572753906,0.011336319706963865
70,1732177129.284341,1.2209389209747314,1.0569202899932861,35.110633850097656,0.012343900594527156
71,1732177129.2972891,1.2303410768508911,1.0569202899932861,35.11799621582031,0.01301855827279207
72,1732177129.3093069,1.2428364753723145,1.0816524028778076,35.12834930419922,0.013832105561262222
73,1732177129.322308,1.2454864978790283,1.0816524028778076,35.133644104003906,0.014761578319221005
74,1732177129.3343139,1.2460210919380188,1.10629403591156,35.139163970947266,0.015849271627738415
75,1732177129.3463268,1.2456621527671814,1.10629403591156,35.144859313964844,0.01711773150039405
76,1732177129.3593276,1.2463206052780151,1.1309763193130493,35.14997863769531,0.018514398317390893
77,1732177129.3723235,1.2521947622299194,1.1309763193130493,35.16085433959961,0.019669400004316166
78,1732177129.3852773,1.2568743824958801,1.1556651592254639,35.165626525878906,0.020994483766945116
79,1732177129.3973014,1.26239013671875,1.1556651592254639,35.16994094848633,0.02228239305733911
80,1732177129.4093237,1.2700823545455933,1.181277871131897,35.17799377441406,0.02320800314473455
81,1732177129.4222877,1.2716464400291443,1.181277871131897,35.1824836730957,0.024236210496372083
82,1732177129.4372876,1.2730759978294373,1.2050120830535889,35.18708419799805,0.025246946121286837
83,1732177129.449322,1.279567301273346,1.2050120830535889,35.19715118408203,0.02632876316162779
84,1732177129.4623227,1.2858169078826904,1.2316266298294067,35.20255661010742,0.0273526876817897
85,1732177129.4753234,1.2932849526405334,1.2316266298294067,35.207618713378906,0.0281027144626458
86,1732177129.487335,1.3010088205337524,1.2573432922363281,35.211875915527344,0.028975151756615594
87,1732177129.49947,1.3140185475349426,1.2573432922363281,35.22027587890625,0.029750085126648385
88,1732177129.5118253,1.3181818127632141,1.2820103168487549,35.22499084472656,0.03077278956886235
89,1732177129.5248137,1.3214150071144104,1.2820103168487549,35.23057174682617,0.03175129488214347
90,1732177129.537798,1.3256598114967346,1.3061825037002563,35.2362060546875,0.03258111323509657
91,1732177129.5498347,1.3401371240615845,1.32688307762146,35.249671936035156,0.031798344624883325
92,1732177129.5618463,1.350071132183075,1.32688307762146,35.25645446777344,0.03158165002421712
93,1732177129.5748346,1.361055850982666,1.32688307762146,35.26134490966797,0.03155133971175112
94,1732177129.5878315,1.371657133102417,1.3525910377502441,35.26652526855469,0.03211434720695518
95,1732177129.6007824,1.3885915279388428,1.3525910377502441,35.27710723876953,0.0325426939613268
96,1732177129.6127996,1.395386517047882,1.3812017440795898,35.281883239746094,0.032815179615018834
97,1732177129.6258373,1.4011952877044678,1.3812017440795898,35.28694534301758,0.032651058336017794
98,1732177129.638863,1.40578293800354,1.4059311151504517,35.292179107666016,0.03251649014644468
99,1732177129.6517797,1.4164001941680908,1.4059311151504517,35.30299377441406,0.03254842748486379
100,1732177129.6638262,1.4227802157402039,1.4315707683563232,35.30799865722656,0.03280793978491467
101,1732177129.6764128,1.429300606250763,1.4315707683563232,35.313232421875,0.03326228912519552
102,1732177129.6884477,1.436127781867981,1.456209659576416,35.318180084228516,0.03396498327714626
103,1732177129.7014093,1.4502804279327393,1.456209659576416,35.328765869140625,0.03481757267054103
104,1732177129.7134557,1.4575262069702148,1.4805114269256592,35.334228515625,0.035741852585102755
105,1732177129.7274494,1.4650572538375854,1.4805114269256592,35.33992385864258,0.03669332283463386
106,1732177129.7404096,1.479196548461914,1.5053389072418213,35.35160446166992,0.03624641434305585
107,1732177129.7524102,1.487332820892334,1.5053389072418213,35.35798645019531,0.03621402713018963
108,1732177129.76541,1.4973179697990417,1.5308442115783691,35.364662170410156,0.035969820609912065
109,1732177129.7774386,1.5093366503715515,1.5308442115783691,35.3704719543457,0.03596974118759464
110,1732177129.7894502,1.534160315990448,1.5564743280410767,35.38203430175781,0.03604717884251682
111,1732177129.8023975,1.5435878038406372,1.5564743280410767,35.388187408447266,0.03619799614360221
112,1732177129.8144097,1.5513414144515991,1.580202341079712,35.39382553100586,0.03634322226414342
113,1732177129.82641,1.5579583048820496,1.580202341079712,35.40055465698242,0.0364263694617384
114,1732177129.8394117,1.5648725628852844,1.6048377752304077,35.40780258178711,0.03678547697960436
115,1732177129.8514278,1.5816388726234436,1.6048377752304077,35.42040252685547,0.036690296823076306
116,1732177129.8644094,1.5912194848060608,1.6295150518417358,35.42655563354492,0.036714639897011424
117,1732177129.8773985,1.5995782017707825,1.6295150518417358,35.432884216308594,0.036783588649209775
118,1732177129.8894103,1.6105894446372986,1.6541882753372192,35.44381332397461,0.036695084546246926
119,1732177129.901443,1.613534688949585,1.6541882753372192,35.45037078857422,0.03682183726808917
120,1732177129.9134448,1.6157025694847107,1.6788642406463623,35.45716094970703,0.036839404739572035
121,1732177129.9264097,1.6179220080375671,1.6788642406463623,35.46377182006836,0.03702530365076669
122,1732177129.938411,1.6211737394332886,1.702608346939087,35.47050476074219,0.037140306242290214
123,1732177129.9514112,1.628039836883545,1.702608346939087,35.48292922973633,0.03706711805580533
124,1732177129.9643967,1.6302993893623352,1.7272286415100098,35.488853454589844,0.037057169020639144
125,1732177129.9764113,1.6313666105270386,1.7272286415100098,35.49592971801758,0.03693423218172754
126,1732177129.9884648,1.6338785886764526,1.7528769969940186,35.51238250732422,0.03570165210195153
127,1732177130.0014048,1.638741672039032,1.7528769969940186,35.520782470703125,0.03467215406055244
128,1732177130.0134375,1.6469131708145142,1.77663254737854,35.52860641479492,0.0334268679364472
129,1732177130.026397,1.6554615497589111,1.77663254737854,35.536888122558594,0.03237457883899951
130,1732177130.0384417,1.662972629070282,1.801308274269104,35.54551696777344,0.031667458266427015
131,1732177130.050463,1.6808111667633057,1.801308274269104,35.56657028198242,0.03126644302196195
132,1732177130.062485,1.6949719190597534,1.825960397720337,35.57652282714844,0.030845122415902232
133,1732177130.075405,1.7129815816879272,1.825960397720337,35.58693313598633,0.030353736881091012
134,1732177130.0883982,1.7333092093467712,1.8496915102005005,35.59722900390625,0.029746456931835842
135,1732177130.1004102,1.7729698419570923,1.8496915102005005,35.61937713623047,0.029123471333807497
136,1732177130.1124122,1.7916890382766724,1.8752682209014893,35.630252838134766,0.028505342926882914
137,1732177130.1253986,1.8092828392982483,1.8752682209014893,35.6402587890625,0.027976360374364146
138,1732177130.1374657,1.8250534534454346,1.8989704847335815,35.65009689331055,0.027553766589170296
139,1732177130.1504095,1.8531103730201721,1.8989704847335815,35.66994094848633,0.027209555391197442
140,1732177130.1624112,1.8665177822113037,1.9236985445022583,35.679893493652344,0.02691285821830485
141,1732177130.1753986,1.8811525106430054,1.9236985445022583,35.68927001953125,0.026656163414137846
142,1732177130.1874309,1.897404134273529,1.9483201503753662,35.69853210449219,0.026436690029338555
143,1732177130.199543,1.9282293915748596,1.9483201503753662,35.718719482421875,0.026264168690296012
144,1732177130.212544,1.9414666295051575,1.9730148315429688,35.72913360595703,0.0261520918047297
145,1732177130.2255075,1.9542864561080933,1.9730148315429688,35.7394905090332,0.02609130505495083
146,1732177130.2375095,1.967799425125122,1.9978173971176147,35.748924255371094,0.026115868922526944
147,1732177130.2495215,1.9913042783737183,1.9978173971176147,35.76882553100586,0.026173905896951535
148,1732177130.2625074,2.0034950375556946,2.0224432945251465,35.778892517089844,0.02629306997461001
149,1732177130.2755075,2.0140281319618225,2.0224432945251465,35.78838348388672,0.02642869802358341
150,1732177130.287548,2.023571014404297,2.0481038093566895,35.796321868896484,0.026598284747087284
151,1732177130.3005083,2.037624478340149,2.0481038093566895,35.81364059448242,0.02675195885975658
152,1732177130.3125105,2.0421467423439026,2.0718319416046143,35.822723388671875,0.02702044173281937
153,1732177130.3245442,2.049417793750763,2.0718319416046143,35.831871032714844,0.027251444898857613
154,1732177130.336585,2.06069815158844,2.096470355987549,35.839752197265625,0.027614569232893533
155,1732177130.3505094,2.0866541266441345,2.096470355987549,35.85637664794922,0.027968697755961905
156,1732177130.3625233,2.097407042980194,2.120232343673706,35.86627197265625,0.028435222887482604
157,1732177130.3755517,2.106607496738434,2.120232343673706,35.87697219848633,0.028930289372938598
158,1732177130.3885417,2.1159865856170654,2.1458334922790527,35.886634826660156,0.029449492611114136
159,1732177130.4005632,2.138388156890869,2.1458334922790527,35.90752029418945,0.029934801460168317
160,1732177130.412656,2.150795578956604,2.1715140342712402,35.91718292236328,0.030344464526350697
161,1732177130.425503,2.164764642715454,2.1715140342712402,35.927364349365234,0.0306216342560429
162,1732177130.4384966,2.1807868480682373,2.195315361022949,35.93570327758789,0.030842133684037203
163,1732177130.4505365,2.2098394632339478,2.195315361022949,35.95014190673828,0.030962335309158033
164,1732177130.4625726,2.2186888456344604,2.220820426940918,35.95773696899414,0.031122223056051373
165,1732177130.475509,2.2234702110290527,2.220820426940918,35.9644660949707,0.03116715186836711
166,1732177130.4875379,2.225593328475952,2.244638442993164,35.9713134765625,0.03147298381330721
167,1732177130.5005362,2.2308398485183716,2.244638442993164,35.98719024658203,0.03168174097480314
168,1732177130.5125604,2.2393447160720825,2.2692246437072754,35.995357513427734,0.032070123131948146
169,1732177130.5255077,2.2527343034744263,2.2692246437072754,36.00294876098633,0.03257122417617807
170,1732177130.537508,2.2679954767227173,2.2939677238464355,36.01042938232422,0.03320498679872425
171,1732177130.5495083,2.2909929752349854,2.2939677238464355,36.02607345581055,0.03382320216115777
172,1732177130.5615087,2.295317053794861,2.3185460567474365,36.03516387939453,0.03445901843145309
173,1732177130.5735486,2.298182487487793,2.3185460567474365,36.04419708251953,0.03504722823710577
174,1732177130.5865426,2.3022998571395874,2.3422348499298096,36.052711486816406,0.035474724784594805
175,1732177130.599522,2.3148542642593384,2.3422348499298096,36.06904602050781,0.03576037448504749
176,1732177130.6265213,2.321527361869812,2.366943836212158,36.07773208618164,0.035931761892371024
177,1732177130.641544,2.3383970260620117,2.38765811920166,36.10160446166992,0.03461085129386125
178,1732177130.6535523,2.3432422876358032,2.4093642234802246,36.10856628417969,0.032784372510963125
179,1732177130.6665335,2.345668911933899,2.4093642234802246,36.115352630615234,0.03065580524947057
180,1732177130.6795075,2.34315288066864,2.4330832958221436,36.132667541503906,0.02935780605327317
181,1732177130.6915267,2.3408360481262207,2.4330832958221436,36.14302062988281,0.028085841423135065
182,1732177130.7045083,2.3410708904266357,2.4587013721466064,36.1540641784668,0.027078882547492737
183,1732177130.716547,2.3465988636016846,2.4587013721466064,36.16585922241211,0.025834708348460456
184,1732177130.7294962,2.371886134147644,2.483377695083618,36.19525146484375,0.024350271819276327
185,1732177130.7415435,2.3906407356262207,2.483377695083618,36.20882797241211,0.022884655790694996
186,1732177130.7545083,2.4123343229293823,2.5080411434173584,36.2225227355957,0.02149573252096931
187,1732177130.7675085,2.434087634086609,2.5080411434173584,36.23747634887695,0.020205288604603647
188,1732177130.7795415,2.472091317176819,2.5327281951904297,36.26531982421875,0.019007543378209864
189,1732177130.7915418,2.4868876934051514,2.5327281951904297,36.27912521362305,0.017879483585255557
190,1732177130.8035548,2.499382257461548,2.557436466217041,36.293792724609375,0.01684268716285874
191,1732177130.8165421,2.5108635425567627,2.557436466217041,36.31047439575195,0.01586412905881032
192,1732177130.828549,2.540356159210205,2.5811378955841064,36.34562301635742,0.014911713995598774
193,1732177130.8414965,2.560030460357666,2.5811378955841064,36.364952087402344,0.014006053876262622
194,1732177130.8535817,2.5830594301223755,2.6058075428009033,36.38312911987305,0.013154844755797134
195,1732177130.866546,2.606999397277832,2.6058075428009033,36.40228271484375,0.012358443953351866
196,1732177130.8785505,2.647705316543579,2.6305150985717773,36.43944549560547,0.011633710737383387
197,1732177130.891542,2.6641420125961304,2.6305150985717773,36.459232330322266,0.010948063999732752
198,1732177130.904526,2.678843140602112,2.6551599502563477,36.478389739990234,0.01032893111697175
199,1732177130.9166434,2.6929675340652466,2.6551599502563477,36.49932861328125,0.009748348923173588
200,1732177130.9296403,2.723742961883545,2.680798053741455,36.54269790649414,0.009224230617639759
201,1732177130.942608,2.7412179708480835,2.680798053741455,36.56444549560547,0.00872365281688333
202,1732177130.955609,2.760318160057068,2.7055861949920654,36.58526611328125,0.008283460371930843
203,1732177130.967649,2.7795870304107666,2.7055861949920654,36.60678482055664,0.007867208834653597
204,1732177130.9806411,2.809749126434326,2.731217622756958,36.64756774902344,0.00751464939445153
205,1732177130.9936087,2.8184410333633423,2.731217622756958,36.67005920410156,0.007174097106575027
206,1732177131.005651,2.8258336782455444,2.755924701690674,36.69353103637695,0.006890742156179895
