,Time,Force,GoalForce,Pos,k
0,1731479770.9875202,0.1540448889136314,0.1527225971221923,35.38007736206055,0.04
1,1731479770.998526,0.1548882275819778,0.1527225971221923,35.3800163269043,0.04
2,1731479771.0085132,0.1554583385586738,0.1866148710250854,35.38013458251953,0.04
3,1731479771.0215237,0.155535452067852,0.1866148710250854,35.38053894042969,0.04
4,1731479771.027526,0.1550096496939659,0.2205257415771484,35.38128662109375,0.04
5,1731479771.0385163,0.1551834642887115,0.2205257415771484,35.38237762451172,0.04
6,1731479771.0475194,0.1568968966603279,0.2577668726444244,35.383872985839844,0.04
7,1731479771.0575264,0.159160241484642,0.2577668726444244,35.38576889038086,0.04
8,1731479771.0675132,0.1611186042428016,0.2933495640754699,35.387901306152344,0.04
9,1731479771.0775132,0.1633745282888412,0.2933495640754699,35.390602111816406,0.04
10,1731479771.0885117,0.1668192446231842,0.3289342522621155,35.39353942871094,0.04
11,1731479771.0975134,0.1712712869048118,0.3289342522621155,35.39716339111328,0.04
12,1731479771.1075125,0.1761065050959587,0.36290043592453,35.40084457397461,0.04
13,1731479771.1195126,0.1816802620887756,0.36290043592453,35.405216217041016,0.04
14,1731479771.127514,0.1880968734622001,0.3984120190143585,35.40970230102539,0.04
15,1731479771.1375155,0.1950122043490409,0.3984120190143585,35.41551208496094,0.04
16,1731479771.1475248,0.2029001340270042,0.4323374032974243,35.42115020751953,0.04
17,1731479771.1575613,0.2120160087943077,0.4323374032974243,35.427188873291016,0.04
18,1731479771.1675136,0.2224255055189132,0.4679083526134491,35.432769775390625,0.04
19,1731479771.1785135,0.2338037863373756,0.4679083526134491,35.43927001953125,0.04
20,1731479771.1885142,0.2457546666264534,0.5035504102706909,35.445884704589844,0.04
21,1731479771.1975136,0.2583982050418854,0.5035504102706909,35.45341873168945,0.04
22,1731479771.2075138,0.2713833749294281,0.5390603542327881,35.46250915527344,0.04
23,1731479771.218515,0.2850535362958908,0.5390603542327881,35.47222900390625,0.04
24,1731479771.2275138,0.3001839518547058,0.5730096101760864,35.480167388916016,0.0397383176386356
25,1731479771.2375655,0.3167237341403961,0.5730096101760864,35.48897171020508,0.0395043644100427
26,1731479771.2505476,0.3337267935276031,0.606930136680603,35.49685287475586,0.0394679019859433
27,1731479771.2585237,0.3505980223417282,0.606930136680603,35.50559616088867,0.0394476478556692
28,1731479771.2685215,0.3675778061151504,0.606930136680603,35.51456832885742,0.0394668106222063
29,1731479771.2775412,0.3843463957309723,0.6425002813339233,35.5224494934082,0.039640431387774
30,1731479771.287542,0.401217982172966,0.6425002813339233,35.5302734375,0.0399134738298224
31,1731479771.2975128,0.4181941002607345,0.6780736446380615,35.537635803222656,0.0403513222681254
32,1731479771.3075385,0.4343087673187256,0.6780736446380615,35.54425048828125,0.0407011577260587
33,1731479771.317525,0.4492340683937073,0.7136393785476685,35.55155944824219,0.0410822680239761
34,1731479771.3275323,0.4633265733718872,0.7136393785476685,35.55955123901367,0.0413186703453854
35,1731479771.337548,0.4773075580596924,0.7491848468780518,35.56783676147461,0.0415013224032875
36,1731479771.347542,0.4920011013746261,0.7491848468780518,35.57652282714844,0.0415373174977919
37,1731479771.3575366,0.5073429346084595,0.7831284403800964,35.58451843261719,0.0414603348343927
38,1731479771.3675122,0.5239153802394867,0.7831284403800964,35.59228515625,0.0412938941212915
39,1731479771.3775454,0.5412586331367493,0.8170263767242432,35.60149002075195,0.0410618527554651
40,1731479771.3875122,0.5586996972560883,0.8170263767242432,35.611724853515625,0.0407836364647609
41,1731479771.397513,0.5764654576778412,0.8525726795196533,35.622886657714844,0.040273997361141
42,1731479771.407513,0.5961402058601379,0.8525726795196533,35.63312530517578,0.0395680388879873
43,1731479771.4175124,0.6175493597984314,0.8881577849388123,35.64198684692383,0.0389305461411564
44,1731479771.427526,0.6401072144508362,0.8881577849388123,35.65205001831055,0.0383106250880559
45,1731479771.4375124,0.6629430949687958,0.92372465133667,35.66131591796875,0.0378748092936038
46,1731479771.4475124,0.6852433383464813,0.92372465133667,35.67161178588867,0.0374095590162181
47,1731479771.4575124,0.7064430713653564,0.9593102335929872,35.68024063110352,0.0370305457336816
48,1731479771.4675145,0.7264380753040314,0.9593102335929872,35.69001770019531,0.0368227876236838
49,1731479771.4775438,0.7461941242218018,0.9932222962379456,35.69898986816406,0.0369277600506665
50,1731479771.4875128,0.7659759819507599,0.9932222962379456,35.70882797241211,0.0371464237475146
51,1731479771.4975216,0.7854792773723602,1.0,35.71849060058594,0.0361379639345779
52,1731479771.5075188,0.8046536445617676,1.0,35.72844314575195,0.0355193534676767
53,1731479771.5185268,0.8249473571777344,1.0,35.73845291137695,0.035402287022877
54,1731479771.5275197,0.8464330434799194,1.0,35.7470817565918,0.0354558935552314
55,1731479771.537513,0.8675408661365509,1.0,35.75559616088867,0.0356410554012187
56,1731479771.547513,0.8877801299095154,1.0,35.763763427734375,0.0358119084054703
57,1731479771.5575504,0.9070303440093994,1.0,35.77250671386719,0.0359644534690208
58,1731479771.5675192,0.9252033233642578,1.0,35.78096389770508,0.0361141045394266
59,1731479771.5785398,0.9424443244934082,1.0,35.78769302368164,0.036264195695763
60,1731479771.590519,0.9588923454284668,1.0,35.793792724609375,0.0363845732705997
61,1731479771.602538,0.97396120429039,1.0,35.79971694946289,0.0364512662050611
62,1731479771.6075256,0.9872247874736786,1.0,35.80483627319336,0.0364722275695937
63,1731479771.6175332,0.9985401928424836,1.0,35.80937957763672,0.0364628156091336
64,1731479771.628538,1.0081774592399595,1.0,35.813926696777344,0.0364353581576553
65,1731479771.637525,1.016480952501297,1.0220394134521484,35.81898880004883,0.0363719622918076
66,1731479771.647521,1.0241349339485168,1.0439186096191406,35.82474136352539,0.0359393345381117
67,1731479771.6575136,1.031893640756607,1.0639605522155762,35.83043670654297,0.035557928642508
68,1731479771.6675456,1.040855884552002,1.0859613418579102,35.83624649047852,0.0351932760723322
69,1731479771.6775336,1.051478922367096,1.105966567993164,35.84245681762695,0.034733820332398
70,1731479771.6875184,1.063590407371521,1.1279640197753906,35.84843826293945,0.03423465065507
71,1731479771.697521,1.0767900347709656,1.1499176025390625,35.85407638549805,0.0337565446407905
72,1731479771.7075262,1.090575873851776,1.1699399948120115,35.86058044433594,0.0331099491874556
73,1731479771.717526,1.1043676137924194,1.1919188499450684,35.868343353271484,0.0323319840336007
74,1731479771.7295463,1.1183751821517944,1.2119193077087402,35.87656784057617,0.0316320651758458
75,1731479771.738534,1.134202063083649,1.2319693565368652,35.88554000854492,0.0308791831349205
76,1731479771.7475138,1.152497947216034,1.2539191246032717,35.894229888916016,0.0299769690079872
77,1731479771.7585375,1.1721836924552915,1.2739229202270508,35.902225494384766,0.0289523857110784
78,1731479771.7685204,1.1920864582061768,1.2959198951721191,35.91114044189453,0.0279547055236142
79,1731479771.7775118,1.211959719657898,1.2959198951721191,35.92115020751953,0.0269591564764059
80,1731479771.787526,1.2321628332138062,1.3178939819335938,35.9321403503418,0.0258931950327286
81,1731479771.7975323,1.254075527191162,1.3379864692687988,35.94318389892578,0.0248436178241547
82,1731479771.807526,1.2782755494117737,1.3599181175231934,35.95376968383789,0.023953881455157
83,1731479771.8215446,1.303809404373169,1.3799185752868652,35.9654426574707,0.0230868687191849
84,1731479771.835546,1.3301455974578855,1.399952411651611,35.97787094116211,0.0222093693689327
85,1731479771.839535,1.3577173948287964,1.4239764213562012,35.98994827270508,0.0213300812975305
86,1731479771.8535266,1.3864389657974243,1.447942852973938,36.00197219848633,0.0204745288553004
87,1731479771.8605828,1.4155239462852478,1.4699158668518066,36.01422500610352,0.0196356597941069
88,1731479771.8675125,1.4446394443511963,1.489979267120361,36.026248931884766,0.0188017178759826
89,1731479771.8775134,1.4739458560943604,1.511918544769287,36.03873062133789,0.0180316408740747
90,1731479771.8875127,1.5038657188415527,1.531949520111084,36.05161666870117,0.0173153710231722
91,1731479771.9015355,1.5338126420974731,1.5539255142211914,36.06363677978516,0.016688136904586
92,1731479771.908519,1.5632193088531494,1.5759177207946775,36.07588958740234,0.0161396632931966
93,1731479771.9185195,1.5924667119979858,1.595919132232666,36.088775634765625,0.0156330184572045
94,1731479771.9275348,1.621886670589447,1.6159650087356567,36.1020622253418,0.015160956678519
95,1731479771.9375334,1.6519659161567688,1.6159650087356567,36.11431884765625,0.0147145574445093
96,1731479771.9475126,1.6827291250228882,1.6378941535949707,36.12605285644531,0.0143199245211092
97,1731479771.968522,1.7129278182983398,1.6579251289367676,36.13887786865234,0.0139638653838582
98,1731479771.9765708,1.742688536643982,1.6799181699752808,36.15055847167969,0.0136979969764304
99,1731479771.981524,1.771865427494049,1.6999597549438477,36.16114044189453,0.0135565581105249
100,1731479771.989524,1.800148904323578,1.720005989074707,36.17000198364258,0.0135347975320009
101,1731479771.997513,1.826176404953003,1.741917610168457,36.1790885925293,0.0137224841588486
102,1731479772.008523,1.848788678646088,1.7638936042785645,36.18788909912109,0.0140016070133819
103,1731479772.019523,1.8682298064231877,1.7839102745056152,36.19669342041016,0.0142533180752134
104,1731479772.0275266,1.886509120464325,1.80393648147583,36.20514678955078,0.0145840640862646
105,1731479772.0375128,1.9044427275657652,1.825918674468994,36.2122802734375,0.0153530145212885
106,1731479772.0495207,1.921367883682251,1.8478927612304688,36.219356536865234,0.0164502911589929
107,1731479772.0595143,1.937300443649292,1.8679566383361816,36.22706604003906,0.0171587330018629
108,1731479772.068539,1.9528908133506773,1.8898930549621584,36.23500442504883,0.0178509575723245
109,1731479772.0775137,1.9686498045921328,1.90993070602417,36.243919372558594,0.0182791132195563
110,1731479772.089532,1.985318064689636,1.9319524765014648,36.25243377685547,0.0186139942449723
111,1731479772.1015534,2.003276824951172,1.9519559144973757,36.26013946533203,0.0189958491542095
112,1731479772.1075137,2.022063136100769,1.972104549407959,36.26853942871094,0.0193880784766216
113,1731479772.1175115,2.041051685810089,1.993894100189209,36.27693557739258,0.0198670173740094
114,1731479772.1275642,2.060308337211609,2.0138940811157227,36.28539276123047,0.020331514184687
115,1731479772.1375136,2.0796502828598022,2.0358943939208984,36.294193267822266,0.0207684643685938
116,1731479772.1475136,2.098889529705048,2.0358943939208984,36.30167388916016,0.0211487290743102
117,1731479772.1575134,2.117584466934204,2.057894229888916,36.30868911743164,0.0216465324520864
118,1731479772.1685252,2.1349304914474487,2.0779056549072266,36.31553649902344,0.0222022942402778
119,1731479772.1785438,2.150850296020508,2.099927425384521,36.32163619995117,0.0227811054541604
120,1731479772.1875527,2.1650915145874023,2.121927261352539,36.32773208618164,0.0236499230850282
121,1731479772.197539,2.177603006362915,2.141969680786133,36.33388900756836,0.0244041426067241
122,1731479772.2075455,2.1891010999679565,2.163914203643799,36.340213775634766,0.0252925233320613
123,1731479772.2175124,2.2004823684692383,2.1839470863342285,36.34608459472656,0.0262610131153064
124,1731479772.2275252,2.211780309677124,2.205893993377685,36.352237701416016,0.0272950609310207
125,1731479772.2375138,2.2235982418060303,2.225917339324951,36.35897064208984,0.0280435983643297
126,1731479772.2475448,2.2367820739746094,2.247920036315918,36.3654670715332,0.0288496587549475
127,1731479772.2575128,2.2512309551239014,2.267960548400879,36.371681213378906,0.0296363822109843
128,1731479772.268545,2.266014814376831,2.2898941040039062,36.37818145751953,0.0303427994090925
129,1731479772.277521,2.2805346250534058,2.3099613189697266,36.38502502441406,0.0308748620604226
130,1731479772.287512,2.2947784662246704,2.3319196701049805,36.39192962646485,0.0314056616593673
131,1731479772.297548,2.309448719024658,2.3538923263549805,36.39986801147461,0.0317991103889889
132,1731479772.3075452,2.3214749097824097,2.373964309692383,36.40907287597656,0.0315522364448619
133,1731479772.3175328,2.340168118476868,2.395972728729248,36.416954040527344,0.0311740282181899
134,1731479772.3275454,2.3614033460617065,2.395972728729248,36.424835205078125,0.0304814578298331
135,1731479772.3375137,2.383302688598633,2.417917251586914,36.43271255493164,0.0301013118732214
136,1731479772.347519,2.4042543172836304,2.437963485717773,36.44025039672852,0.029875053618095
137,1731479772.3575125,2.42406690120697,2.459958553314209,36.44847869873047,0.0296785744909122
138,1731479772.367523,2.443204402923584,2.481889247894287,36.45647048950195,0.0295415234163709
139,1731479772.3775122,2.461903691291809,2.5019102096557617,36.46383666992188,0.0294787881087041
140,1731479772.3875136,2.4801429510116577,2.523918628692627,36.47102737426758,0.0295082542503574
141,1731479772.3975134,2.497723698616028,2.543975353240967,36.47787094116211,0.0295886237804322
142,1731479772.4075267,2.514333128929138,2.565904140472412,36.48419952392578,0.0298085545942988
143,1731479772.4175246,2.5295490026474,2.585963249206543,36.4913330078125,0.0299627786528294
144,1731479772.4275184,2.543944001197815,2.6078925132751465,36.49903869628906,0.0299613097147249
145,1731479772.4375198,2.5590341091156006,2.6279172897338867,36.50726318359375,0.0299770232367011
146,1731479772.4475267,2.5757540464401245,2.6479201316833496,36.516239166259766,0.0298298605228209
147,1731479772.4575138,2.5946625471115112,2.669919490814209,36.52434921264648,0.0297081995408007
148,1731479772.4675198,2.6156023740768437,2.691918134689331,36.532344818115234,0.0296480731353404
149,1731479772.4775126,2.63741147518158,2.7119531631469727,36.54154968261719,0.0294952933804907
150,1731479772.4875257,2.659129023551941,2.733919620513916,36.551387786865234,0.0290863259717867
151,1731479772.4975195,2.6817100048065186,2.755918025970459,36.56202697753906,0.028394230298851
152,1731479772.5085144,2.706185817718506,2.755918025970459,36.571807861328125,0.0275056646847613
153,1731479772.5195534,2.732329845428467,2.7779831886291504,36.58095550537109,0.026639841228773
154,1731479772.527528,2.7588340044021606,2.797985553741455,36.59038925170898,0.0259295408994405
155,1731479772.573532,2.7846890687942505,2.819917678833008,36.59959411621094,0.02539658051614
156,1731479772.5815296,2.8530913591384888,2.839919090270996,36.62432861328125,0.0244130548258188
157,1731479772.5955365,2.8719907999038696,2.911939144134521,36.63105773925781,0.0236701492371764
158,1731479772.6025248,2.902650833129883,2.9539427757263184,36.64866256713867,0.0228796665506905
159,1731479772.6095216,2.9174424409866333,2.9759349822998047,36.65820693969727,0.0218554700773072
160,1731479772.6185255,2.9348803758621216,2.995997905731201,36.66856384277344,0.021017639781038
161,1731479772.627543,2.9552712440490723,2.995997905731201,36.680702209472656,0.0199924006938934
162,1731479772.6375134,2.979859948158264,3.017920017242432,36.692378997802734,0.0191165002141893
163,1731479772.6475146,3.0093294382095337,3.037961006164551,36.70463180541992,0.0182744251821488
164,1731479772.6625247,3.0422998666763306,3.059892177581787,36.71734237670898,0.017550656259869
165,1731479772.6685126,3.076905131340027,3.079916000366211,36.7303466796875,0.0169262923285197
166,1731479772.6785474,3.112548828125,3.0999388694763184,36.74202346801758,0.016342591306701
167,1731479772.6875443,3.148230195045471,3.1199827194213867,36.752838134765625,0.0157666145997954
168,1731479772.6975403,3.181304216384888,3.141953229904175,36.76359176635742,0.0152253322925609
169,1731479772.7085762,3.210071325302124,3.163959264755249,36.77486801147461,0.0147305803002215
170,1731479772.7185352,3.235949993133545,3.184016704559326,36.78597259521485,0.0142948351280061
171,1731479772.7275455,3.2604868412017822,3.205963134765625,36.79574966430664,0.0139868366622478
172,1731479772.7375505,3.2837905883789062,3.2259645462036133,36.80575942993164,0.0137734406243459
173,1731479772.7475135,3.305905222892761,3.247964382171631,36.816802978515625,0.0136360502176608
174,1731479772.757514,3.3280038833618164,3.2698941230773926,36.82802200317383,0.0135659851968103
175,1731479772.7675135,3.350881814956665,3.2898941040039062,36.83877944946289,0.0135003885446322
176,1731479772.7815351,3.3749183416366577,3.3099613189697266,36.84832763671875,0.0134805246615408
177,1731479772.7885256,3.3996927738189697,3.332006454467773,36.85810852050781,0.0134809338717757
178,1731479772.798529,3.423781394958496,3.353919267654419,36.867942810058594,0.0134954673910825
179,1731479772.807551,3.446351170539856,3.3759069442749023,36.87789535522461,0.0135210832534452
180,1731479772.8185134,3.4671016931533813,3.395925045013428,36.88710021972656,0.0136074392455715
181,1731479772.8275137,3.4870493412017822,3.395925045013428,36.8954963684082,0.0137572468928603
182,1731479772.8375132,3.506351590156555,3.4178943634033203,36.904239654541016,0.0140521006982423
183,1731479772.84755,3.524117946624756,3.438066005706787,36.91292572021485,0.0143773080886212
184,1731479772.8575425,3.540562868118286,3.459892988204956,36.92184448242188,0.0147079340276844
185,1731479772.8675113,3.557005882263184,3.4799180030822754,36.93058776855469,0.0151038156069273
186,1731479772.8775146,3.5739121437072754,3.4999213218688965,36.938697814941406,0.0155660726756114
187,1731479772.8875473,3.590563416481018,3.5218935012817383,36.94726943969727,0.0161097693634264
188,1731479772.897545,3.6070942878723145,3.541958808898926,36.95549392700195,0.0166138420127838
189,1731479772.9075131,3.623823404312134,3.5639634132385254,36.96308898925781,0.0172370110860177
190,1731479772.9185183,3.64036238193512,3.5858941078186035,36.97039413452149,0.0180516331935562
191,1731479772.9275177,3.6558820009231567,3.605919599533081,36.9775276184082,0.0187790550256941
192,1731479772.9375136,3.669865369796753,3.627916812896729,36.98477554321289,0.0195178547097898
193,1731479772.9475124,3.6823712587356567,3.6499199867248535,36.99236679077149,0.0203285865718415
194,1731479772.9575188,3.6943060159683223,3.6718945503234863,36.99956130981445,0.0211560240597389
195,1731479772.9675126,3.7069575786590576,3.6919198036193848,37.00651931762695,0.0219117763230975
196,1731479772.9775195,3.720080733299256,3.713969230651856,37.0135383605957,0.0227391658431091
197,1731479772.987513,3.732691645622253,3.735917568206787,37.020729064941406,0.0236077476923881
198,1731479772.9975145,3.7444489002227774,3.735917568206787,37.02843475341797,0.0243942311601535
199,1731479773.0075126,3.757166743278504,3.757904767990112,37.037353515625,0.0249153957095768
200,1731479773.0185258,3.772680997848511,3.7779173851013184,37.04609680175781,0.025347987740668
201,1731479773.0275133,3.79080867767334,3.797962665557861,37.05426406860352,0.0258465701083234
202,1731479773.0375526,3.810919642448425,3.817964553833008,37.0624885559082,0.0261888656756185
203,1731479773.0475123,3.832007884979248,3.839916467666626,37.0702018737793,0.0266282979018303
204,1731479773.0575457,3.852223873138428,3.859930515289306,37.078712463378906,0.0270245565503965
205,1731479773.0675125,3.870819211006165,3.879976272583008,37.08757019042969,0.0271172661137698
206,1731479773.0775144,3.889062285423279,3.90000057220459,37.09568405151367,0.0269116261051998
207,1731479773.0875251,3.907783627510071,3.921893119812012,37.10367584228516,0.0265725562823032
208,1731479773.0975122,3.92635190486908,3.941914558410645,37.11080932617188,0.0263087318705513
209,1731479773.107526,3.944034218788147,3.9639639854431152,37.11777114868164,0.0261663282022172
210,1731479773.1185124,3.9603030681610103,3.98399019241333,37.1253662109375,0.0260351669733489
211,1731479773.1275258,3.974257230758667,4.005941390991211,37.13312911987305,0.0259818258757679
212,1731479773.138517,3.986954808235169,4.027919769287109,37.141300201416016,0.025975214500006
