,Time,Force,GoalForce,Pos,k
0,1732176972.936526,0.22132909297943115,0.20000000298023224,36.0431022644043,0.04
1,1732176972.9485264,0.20812147855758667,0.20000000298023224,36.062835693359375,0.04
2,1732176972.9605517,0.2070748656988144,0.20000000298023224,36.06611251831055,0.04
3,1732176972.9795458,0.2082425057888031,0.20000000298023224,36.073822021484375,0.04
4,1732176972.9924881,0.2130015268921852,0.2082425057888031,36.08342361450195,0.04
5,1732176973.0044882,0.21620511263608932,0.2082425057888031,36.087337493896484,0.04
6,1732176973.0164895,0.21911440789699554,0.23296397924423218,36.09119415283203,0.04
7,1732176973.0294771,0.22138145565986633,0.23296397924423218,36.09556579589844,0.04
8,1732176973.041489,0.22867538779973984,0.2566876709461212,36.10430908203125,0.04
9,1732176973.0535657,0.23558292537927628,0.2566876709461212,36.108333587646484,0.04
10,1732176973.0665402,0.24323063343763351,0.28139781951904297,36.1123046875,0.04
11,1732176973.0794892,0.25030292570590973,0.28139781951904297,36.116790771484375,0.04
12,1732176973.0915143,0.25689219683408737,0.3061593770980835,36.126800537109375,0.04
13,1732176973.1035223,0.24980223178863525,0.3061593770980835,36.131404876708984,0.04
14,1732176973.1155224,0.2357252836227417,0.330844521522522,36.13611602783203,0.04
15,1732176973.1285133,0.22075491398572922,0.330844521522522,36.1414680480957,0.04
16,1732176973.1405134,0.2091962695121765,0.3545747995376587,36.14699172973633,0.04
17,1732176973.1534884,0.20007583498954773,0.3545747995376587,36.1584358215332,0.04
18,1732176973.1664898,0.20122147351503372,0.37927672266960144,36.16453552246094,0.04
19,1732176973.1785028,0.20361950993537903,0.37927672266960144,36.17161178588867,0.04
20,1732176973.191477,0.20650533586740494,0.40495264530181885,36.179203033447266,0.04
21,1732176973.2034786,0.21564128994941711,0.40495264530181885,36.196693420410156,0.04
22,1732176973.21648,0.21965450793504715,0.42965081334114075,36.20468521118164,0.04
23,1732176973.22848,0.22293013334274292,0.42965081334114075,36.21360397338867,0.04
24,1732176973.2404966,0.2258165180683136,0.45436447858810425,36.22355651855469,0.04
25,1732176973.2534442,0.23129674792289734,0.45436447858810425,36.2470817565918,0.04
26,1732176973.2654462,0.2354305535554886,0.47810325026512146,36.25686264038086,0.04
27,1732176973.278445,0.24036722630262375,0.47810325026512146,36.267391204833984,0.04
28,1732176973.2904453,0.24516307562589645,0.5027641654014587,36.277687072753906,0.04
29,1732176973.3034453,0.2529444247484207,0.5027641654014587,36.299373626708984,0.04
30,1732176973.3154857,0.257585346698761,0.5274741053581238,36.309959411621094,0.03777725888788701
31,1732176973.3284338,0.26348239928483963,0.5274741053581238,36.320194244384766,0.035813960225880154
32,1732176973.3414335,0.2701176851987839,0.5522247552871704,36.33089828491211,0.03406789701417089
33,1732176973.3534477,0.2826583981513977,0.5522247552871704,36.355628967285156,0.03250214745463432
34,1732176973.3664787,0.28698790073394775,0.5778723955154419,36.368919372558594,0.031047692692531652
35,1732176973.379469,0.29061195254325867,0.5778723955154419,36.38347244262695,0.02971438073031918
36,1732176973.3914807,0.29876820743083954,0.6026278138160706,36.41706466674805,0.028109313201124808
37,1732176973.404476,0.303849458694458,0.6026278138160706,36.433231353759766,0.0263801991056341
38,1732176973.4164803,0.30969445407390594,0.62734055519104,36.45209884643555,0.02438556416393263
39,1732176973.4294713,0.3162844777107239,0.62734055519104,36.47148895263672,0.0224878997357423
40,1732176973.4424691,0.3301732540130615,0.6520509123802185,36.51416778564453,0.020638721000558278
41,1732176973.4554338,0.3397081792354584,0.6520509123802185,36.5361442565918,0.01895464701945884
42,1732176973.4684339,0.34999939799308777,0.6777390837669373,36.56300735473633,0.017393098992812363
43,1732176973.4804661,0.36207742989063263,0.6777390837669373,36.590789794921875,0.015981580227426646
44,1732176973.492497,0.3924451172351837,0.7034034729003906,36.65102005004883,0.014681877701933943
45,1732176973.5054398,0.41044312715530396,0.7034034729003906,36.683231353759766,0.0134918411533139
46,1732176973.517445,0.4301217645406723,0.7271881699562073,36.716827392578125,0.012396380273783373
47,1732176973.5294633,0.45319412648677826,0.7271881699562073,36.75714874267578,0.011399229191758484
48,1732176973.541479,0.5084517002105713,0.7518476843833923,36.837398529052734,0.010473656682388411
49,1732176973.5544336,0.5387329757213593,0.7518476843833923,36.88019561767578,0.009614681587170595
50,1732176973.566445,0.5710281133651733,0.7756036520004272,36.92546844482422,0.008824656049375417
51,1732176973.5784452,0.6061402261257172,0.7756036520004272,36.970970153808594,0.008102793134158565
52,1732176973.5904646,0.6423569917678833,0.8002808094024658,37.01457214355469,0.0075491208270466745
53,1732176973.6035013,0.7209296822547913,0.8002808094024658,37.11420440673828,0.007012002416687585
54,1732176973.6164434,0.7608478367328644,0.8240224719047546,37.16275405883789,0.006635447790201644
55,1732176973.6284795,0.8023056983947754,0.8240224719047546,37.213375091552734,0.006200108567231422
56,1732176973.6414819,0.8455885946750641,0.8497006893157959,37.25537109375,0.0058569063840241955
57,1732176973.6544447,0.9325376451015472,0.8497006893157959,37.3433837890625,0.005490416902491307
58,1732176973.666445,0.9741048216819763,0.8744494915008545,37.382442474365234,0.005188232854438295
59,1732176973.6784804,1.0137841403484344,0.8744494915008545,37.41804885864258,0.0048847762612767255
60,1732176973.6914454,1.0499786138534546,0.8991238474845886,37.4471549987793,0.004640262401992133
61,1732176973.7034688,1.105896234512329,0.8991238474845886,37.503814697265625,0.004401097757572577
62,1732176973.7164464,1.1245597004890442,0.9238349199295044,37.527286529541016,0.004227106539007705
63,1732176973.7284472,1.1391416192054749,0.9238349199295044,37.55162048339844,0.004071194959704591
64,1732176973.7414465,1.1516545414924622,0.9485467672348022,37.571407318115234,0.004007113698593837
65,1732176973.7534697,1.1798571944236755,0.9485467672348022,37.615413665771484,0.003971221171816046
66,1732176973.7665064,1.1947230100631714,0.9732576012611389,37.634456634521484,0.004058936273753514
67,1732176973.779433,1.209405243396759,0.9732576012611389,37.652862548828125,0.004189089894547942
68,1732176973.7914479,1.2359938025474548,0.9980276226997375,37.682430267333984,0.004290694856871559
69,1732176973.8044336,1.2464662790298462,0.9980276226997375,37.69404983520508,0.004407789483349973
70,1732176973.8165073,1.2540567517280579,1.0226805210113525,37.706302642822266,0.004591988146020282
71,1732176973.8294673,1.2597702741622925,1.0226805210113525,37.717864990234375,0.004800804988411046
72,1732176973.8424594,1.26547509431839,1.047450065612793,37.737422943115234,0.005308568565577546
73,1732176973.8574395,1.267578125,1.047450065612793,37.74823760986328,0.005940187708464515
74,1732176973.8694503,1.2705763578414917,1.0731019973754883,37.758995056152344,0.006871783068860099
75,1732176973.8824973,1.282486915588379,1.0978608131408691,37.77901077270508,0.0077161472270648405
76,1732176973.8954477,1.2907337546348572,1.0978608131408691,37.78844451904297,0.008481544254400794
77,1732176973.9084592,1.298534333705902,1.0978608131408691,37.79747772216797,0.009078096987913667
78,1732176973.921434,1.3045925498008728,1.1254771947860718,37.80593490600586,0.009731717944542128
79,1732176973.9335237,1.3128913640975952,1.1452467441558838,37.822269439697266,0.010449546127378546
80,1732176973.9464872,1.3160992860794067,1.1452467441558838,37.831302642822266,0.011247870928519609
81,1732176973.9594338,1.3205928206443787,1.1452467441558838,37.83946990966797,0.012148440351909675
82,1732176973.9714572,1.337442934513092,1.1759262084960938,37.85511779785156,0.012998726081096777
83,1732176973.9854395,1.3478357791900635,1.1759262084960938,37.8612174987793,0.013800233105936928
84,1732176973.9981499,1.3562357425689697,1.200607419013977,37.866336822509766,0.014783305786656693
85,1732176974.0111473,1.3614571690559387,1.200607419013977,37.87150955200195,0.015610734511262794
86,1732176974.0231705,1.3612704277038574,1.2260035276412964,37.880889892578125,0.01668331575886603
87,1732176974.0352006,1.3577883839607239,1.2260035276412964,37.885719299316406,0.017614769659902416
88,1732176974.0481806,1.354595124721527,1.2517223358154297,37.890838623046875,0.01887923778366962
89,1732176974.061148,1.352506399154663,1.2517223358154297,37.89693832397461,0.020099344749199617
90,1732176974.074172,1.352557361125946,1.2764431238174438,37.90884780883789,0.02114075327570492
91,1732176974.087147,1.3549790978431702,1.2764431238174438,37.91545867919922,0.02221348423947621
92,1732176974.0991473,1.3586748242378235,1.3021337985992432,37.92207717895508,0.023184354581145004
93,1732176974.1111484,1.3707226514816284,1.3021337985992432,37.9342155456543,0.02416693983469089
94,1732176974.1241467,1.3790926933288574,1.3268202543258667,37.94036865234375,0.02513169483536792
95,1732176974.1361854,1.3876623511314392,1.3268202543258667,37.946468353271484,0.02591717752391975
96,1732176974.1482086,1.3952797651290894,1.3515303134918213,37.952274322509766,0.026724917554034718
97,1732176974.1611788,1.4014968872070312,1.3515303134918213,37.95866012573242,0.027454505812979275
98,1732176974.174173,1.4123089909553528,1.3753138780593872,37.97304153442383,0.026874921874871734
99,1732176974.187147,1.4183877110481262,1.3753138780593872,37.979427337646484,0.02669049750119825
100,1732176974.200146,1.4261144995689392,1.4009779691696167,37.98569869995117,0.026391689221713362
101,1732176974.2121468,1.4435529112815857,1.4009779691696167,37.99818420410156,0.026458367026436405
102,1732176974.2251468,1.4516121745109558,1.4266504049301147,38.004737854003906,0.026847023278404544
103,1732176974.2372034,1.4587371349334717,1.4266504049301147,38.01181411743164,0.027153065027233306
104,1732176974.25015,1.4649354219436646,1.4513620138168335,38.017852783203125,0.027450035524162364
105,1732176974.262179,1.4776147603988647,1.4513620138168335,38.029991149902344,0.027707899074369113
106,1732176974.2751822,1.4846667647361755,1.4760758876800537,38.035743713378906,0.02815734919364462
107,1732176974.2881784,1.4917940497398376,1.4760758876800537,38.04080581665039,0.028505134521024315
108,1732176974.3011734,1.4994401335716248,1.5008184909820557,38.04552459716797,0.029056337867465813
109,1732176974.3131807,1.5150237679481506,1.5008184909820557,38.056915283203125,0.029513128752369163
110,1732176974.3261728,1.520608901977539,1.5265090465545654,38.06312561035156,0.03022997624116404
111,1732176974.3391705,1.5250272154808044,1.5265090465545654,38.06974411010742,0.03095806021783289
112,1732176974.3511767,1.5344913005828857,1.5512192249298096,38.08325958251953,0.030495998674275306
113,1732176974.363223,1.539775550365448,1.5512192249298096,38.08930206298828,0.030587975976146903
114,1732176974.3761492,1.5450265407562256,1.575933814048767,38.096031188964844,0.030343174566874784
115,1732176974.3881958,1.550279140472412,1.575933814048767,38.10385513305664,0.03047596481148888
116,1732176974.4011812,1.5558137893676758,1.6006174087524414,38.11185073852539,0.030973222703079784
117,1732176974.4141736,1.5712467432022095,1.6006174087524414,38.13059997558594,0.03142706768245137
118,1732176974.4271348,1.5832497477531433,1.6253597736358643,38.138423919677734,0.03179799884436103
119,1732176974.439176,1.5967817306518555,1.6253597736358643,38.14653778076172,0.03197559672484612
120,1732176974.4521475,1.6183431148529053,1.6510131359100342,38.16166305541992,0.031481268625466366
121,1732176974.465146,1.6243932843208313,1.6510131359100342,38.169376373291016,0.031001404781050984
122,1732176974.4771469,1.6276721954345703,1.6757365465164185,38.17656326293945,0.03037707398138121
123,1732176974.4901934,1.6303150057792664,1.6757365465164185,38.18381118774414,0.029878989553168492
124,1732176974.5031595,1.636524260044098,1.700446605682373,38.198883056640625,0.029566999215526947
125,1732176974.5151885,1.6398112177848816,1.700446605682373,38.20664978027344,0.02941442998228392
126,1732176974.5281923,1.6434960961341858,1.7261582612991333,38.21481704711914,0.029259087081056127
127,1732176974.5411818,1.6477543115615845,1.7261582612991333,38.223388671875,0.02905377948460098
128,1732176974.5531917,1.658169686794281,1.750901460647583,38.24260330200195,0.028636136241350616
129,1732176974.5654545,1.6656984686851501,1.750901460647583,38.25209045410156,0.028121971566314144
130,1732176974.5782008,1.674736499786377,1.7756117582321167,38.261985778808594,0.02754112625464914
131,1732176974.5911465,1.6844820976257324,1.7756117582321167,38.27262878417969,0.02693536973159121
132,1732176974.6031635,1.7067168354988098,1.800331473350525,38.29512023925781,0.02628231656098908
133,1732176974.6161506,1.717594861984253,1.800331473350525,38.30553436279297,0.025502162678938026
134,1732176974.629164,1.7272586226463318,1.825005292892456,38.31554412841797,0.024655931818992716
135,1732176974.6421473,1.74631005525589,1.825005292892456,38.33855438232422,0.023774479779759786
136,1732176974.6541483,1.7561514377593994,1.8507051467895508,38.35069274902344,0.0231840287847755
137,1732176974.6671462,1.7672677040100098,1.8507051467895508,38.361846923828125,0.022781788017163067
138,1732176974.6791472,1.77971351146698,1.875400424003601,38.37381362915039,0.022380583135017205
139,1732176974.6911473,1.8035602569580078,1.875400424003601,38.4006233215332,0.022102001441474364
140,1732176974.7041483,1.8150012493133545,1.9001100063323975,38.41316223144531,0.021822640306909925
141,1732176974.717136,1.825804352760315,1.9001100063323975,38.4266242980957,0.021570625572347683
142,1732176974.7291694,1.8352771997451782,1.9248219728469849,38.44071578979492,0.02142223805392746
143,1732176974.7411776,1.851491391658783,1.9248219728469849,38.46861267089844,0.021338114762648616
144,1732176974.753202,1.8582742810249329,1.9495534896850586,38.48362731933594,0.021262170597324975
145,1732176974.7661452,1.8636585474014282,1.9495534896850586,38.49818420410156,0.02115126704371888
146,1732176974.7781935,1.8688196539878845,1.9733080863952637,38.51331329345703,0.021019507991047966
147,1732176974.7911813,1.873985469341278,1.9733080863952637,38.52855682373047,0.020808267001902105
148,1732176974.804148,1.8843058347702026,1.9980103969573975,38.5592155456543,0.02030292759501491
149,1732176974.8161693,1.8874037861824036,1.9980103969573975,38.57457733154297,0.019621144381882734
150,1732176974.82917,1.885790467262268,2.023664712905884,38.59010696411133,0.018693083079357735
151,1732176974.8421474,1.8763647675514221,2.023664712905884,38.62853240966797,0.017742048585444502
152,1732176974.8541481,1.8812666535377502,2.0483973026275635,38.65068054199219,0.017095589869347047
153,1732176974.8661697,1.8980632424354553,2.0483973026275635,38.67242431640625,0.016402567051166442
154,1732176974.8791573,1.924750030040741,2.0730865001678467,38.69249725341797,0.015690573619139923
155,1732176974.8911805,1.9930827617645264,2.0730865001678467,38.73351287841797,0.014945143855809629
156,1732176974.904226,2.0283774733543396,2.097806215286255,38.755374908447266,0.014312092700331921
157,1732176974.917134,2.0573219656944275,2.097806215286255,38.77516174316406,0.013712797378357813
158,1732176974.9291484,2.0776602625846863,2.1225850582122803,38.79518127441406,0.013214901985844879
159,1732176974.9411757,2.100997507572174,2.1225850582122803,38.83573532104492,0.012758144425261833
160,1732176974.95319,2.1109403371810913,2.147218942642212,38.856040954589844,0.012369835227199333
161,1732176974.9661894,2.1231181025505066,2.147218942642212,38.87761306762695,0.012018533885003272
162,1732176974.979185,2.138486623764038,2.170982599258423,38.89912414550781,0.011704079197664091
163,1732176974.9921534,2.180208921432495,2.170982599258423,38.94658279418945,0.011390836826848116
164,1732176975.0051637,2.208426594734192,2.196676731109619,38.969825744628906,0.011103003025252038
165,1732176975.0181637,2.23828125,2.196676731109619,38.9892692565918,0.010825030457405817
166,1732176975.0312116,2.2656272649765015,2.2223546504974365,39.00687026977539,0.010629186363305364
167,1732176975.0441473,2.301201343536377,2.2223546504974365,39.04213333129883,0.010457760801570756
168,1732176975.0571477,2.3111099004745483,2.248101234436035,39.060943603515625,0.010366647822997399
169,1732176975.0701354,2.320223331451416,2.248101234436035,39.080387115478516,0.010272739835090722
170,1732176975.0821486,2.3423452377319336,2.2737374305725098,39.11714553833008,0.010080539218342857
171,1732176975.095165,2.3542428016662598,2.2737374305725098,39.13411331176758,0.009891666761121055
172,1732176975.1081529,2.3663960695266724,2.2984490394592285,39.15142822265625,0.009667343161476464
173,1732176975.1211824,2.378941535949707,2.2984490394592285,39.16891860961914,0.009418370911380182
174,1732176975.1341476,2.403512716293335,2.3241524696350098,39.20486831665039,0.00918120526275086
175,1732176975.1461866,2.4154785871505737,2.3241524696350098,39.22356414794922,0.008912110679606029
176,1732176975.159147,2.4288487434387207,2.349846601486206,39.241512298583984,0.008617642968081918
177,1732176975.1711822,2.45695424079895,2.349846601486206,39.27711868286133,0.008334174390152233
178,1732176975.184173,2.470396876335144,2.37455677986145,39.29500961303711,0.008225628966553633
179,1732176975.197175,2.4827979803085327,2.37455677986145,39.310482025146484,0.00811215649832513
180,1732176975.2101834,2.4940896034240723,2.3992931842803955,39.32716369628906,0.008064636628680462
181,1732176975.2231476,2.5150890350341797,2.3992931842803955,39.360469818115234,0.008027854449319572
182,1732176975.2351515,2.5274170637130737,2.4250025749206543,39.37824630737305,0.008104104894490002
183,1732176975.250151,2.540445566177368,2.4250025749206543,39.39469909667969,0.00814934161879804
184,1732176975.2622113,2.569326400756836,2.4496817588806152,39.426509857177734,0.008119854182703968
185,1732176975.2751877,2.583057403564453,2.4704270362854004,39.4406623840332,0.008116949197534033
186,1732176975.288219,2.5950191020965576,2.4704270362854004,39.45579147338867,0.00805518762488661
187,1732176975.301174,2.6044918298721313,2.4902374744415283,39.4686164855957,0.008121063437040131
188,1732176975.3132079,2.6129250526428223,2.4902374744415283,39.495941162109375,0.008168625385441317
189,1732176975.32619,2.613798141479492,2.5149405002593994,39.50969314575195,0.008254075002710163
190,1732176975.338209,2.616413950920105,2.5149405002593994,39.52436065673828,0.008299897139853364
191,1732176975.3511798,2.623204469680786,2.5396671295166016,39.5402946472168,0.008425693143683188
192,1732176975.36416,2.652294874191284,2.5396671295166016,39.57187271118164,0.008533849205920858
193,1732176975.3771605,2.672157406806946,2.5643680095672607,39.58671569824219,0.00872434641318002
194,1732176975.3902006,2.690990924835205,2.5643680095672607,39.59988784790039,0.00893520430457424
195,1732176975.4031825,2.712760090827942,2.590047836303711,39.61921691894531,0.009166467479453958
196,1732176975.4161358,2.712498426437378,2.590047836303711,39.628883361816406,0.009390352442788909
197,1732176975.4291358,2.7071726322174072,2.615769147872925,39.639408111572266,0.009660216554934827
198,1732176975.441147,2.701653242111206,2.615769147872925,39.66293716430664,0.00996099560478483
199,1732176975.4531481,2.7091087102890015,2.6414220333099365,39.67656707763672,0.010311325947366544
200,1732176975.4651928,2.723663806915283,2.6414220333099365,39.691410064697266,0.010713691578736056
201,1732176975.4782095,2.744059681892395,2.665156602859497,39.7044677734375,0.011091952271548047
202,1732176975.4911418,2.7674823999404907,2.665156602859497,39.71677780151367,0.011593369168597878
203,1732176975.5042217,2.805445075035095,2.6899280548095703,39.73633575439453,0.011978747529588718
204,1732176975.5181825,2.813333511352539,2.6899280548095703,39.74439239501953,0.012254025507243792
205,1732176975.5311356,2.813765525817871,2.715639352798462,39.751121520996094,0.012648393706922816
