,Time,Force,GoalForce,Pos,k
0,1732020070.9614766,0.2293020635843277,0.20000000298023224,34.106143951416016,0.04
1,1732020070.9735222,0.24310319870710373,0.20000000298023224,34.12736892700195,0.04
2,1732020070.9864888,0.24536757171154022,0.20000000298023224,34.13139724731445,0.04
3,1732020070.998521,0.2479020282626152,0.20000000298023224,34.138301849365234,0.04
4,1732020071.0115247,0.24889764934778214,0.24536757171154022,34.141807556152344,0.04
5,1732020071.02451,0.2502664774656296,0.24536757171154022,34.14589309692383,0.04
6,1732020071.037488,0.25152701884508133,0.2697891294956207,34.14997863769531,0.04
7,1732020071.0504766,0.25329872965812683,0.2697891294956207,34.15924072265625,0.04
8,1732020071.0624878,0.2550262361764908,0.2951153814792633,34.163665771484375,0.04
9,1732020071.075517,0.25745928287506104,0.2951153814792633,34.16861343383789,0.04
10,1732020071.088515,0.26078077405691147,0.3195018172264099,34.17396545410156,0.04
11,1732020071.1015162,0.2702675387263298,0.3195018172264099,34.18478012084961,0.04
12,1732020071.1145105,0.27532146871089935,0.34489041566848755,34.189613342285156,0.04
13,1732020071.126513,0.28004197776317596,0.34489041566848755,34.19472885131836,0.04
14,1732020071.1395228,0.2913110554218292,0.37024807929992676,34.20445251464844,0.04
15,1732020071.1525698,0.29886049032211304,0.37024807929992676,34.20894241333008,0.04
16,1732020071.1654875,0.3071189373731613,0.394646555185318,34.213600158691406,0.04
17,1732020071.177489,0.31583867967128754,0.394646555185318,34.21877670288086,0.04
18,1732020071.1895108,0.32951968908309937,0.4199742376804352,34.23045349121094,0.04
19,1732020071.2024891,0.3350814878940582,0.4199742376804352,34.23701095581055,0.04
20,1732020071.215488,0.34091319143772125,0.4434081017971039,34.24408721923828,0.04
21,1732020071.2275195,0.3471178859472275,0.4434081017971039,34.25093078613281,0.04
22,1732020071.2405138,0.3611263185739517,0.4687478244304657,34.26387405395508,0.04
23,1732020071.2534883,0.3688214123249054,0.4687478244304657,34.27164077758789,0.04
24,1732020071.2664766,0.3761467784643173,0.49315959215164185,34.27975082397461,0.04
25,1732020071.27851,0.390940323472023,0.49315959215164185,34.29798889160156,0.04
26,1732020071.2914762,0.3982745110988617,0.5184853672981262,34.30517578125,0.04
27,1732020071.3034875,0.4049895107746124,0.5184853672981262,34.31288528442383,0.04
28,1732020071.3154888,0.41161416471004486,0.5428715944290161,34.32048034667969,0.04
29,1732020071.3275218,0.4185350388288498,0.5428715944290161,34.32841873168945,0.04
30,1732020071.340519,0.4336222857236862,0.5662949681282043,34.34446716308594,0.037823391951620586
31,1732020071.3534894,0.4417732059955597,0.5662949681282043,34.35177230834961,0.035905709748715174
32,1732020071.3664882,0.4502941817045212,0.5907109379768372,34.35930633544922,0.034099182160422216
33,1732020071.3785124,0.46772927045822144,0.5907109379768372,34.374839782714844,0.03258517090683431
34,1732020071.3914762,0.47691769897937775,0.6160430312156677,34.38381576538086,0.03126159232144282
35,1732020071.4035022,0.4867085963487625,0.6160430312156677,34.39278793334961,0.030092694837910466
36,1732020071.4164877,0.497454434633255,0.6404178738594055,34.40262222290039,0.028977180588897346
37,1732020071.42852,0.5232604891061783,0.6404178738594055,34.42373275756836,0.027942858511498223
38,1732020071.441489,0.5384209752082825,0.6648156642913818,34.43512725830078,0.026941201909742342
39,1732020071.4535115,0.555008053779602,0.6648156642913818,34.447608947753906,0.026111114352370728
40,1732020071.466477,0.5732428431510925,0.6892035007476807,34.45945739746094,0.02532751299091467
41,1732020071.4794765,0.6117312610149384,0.6892035007476807,34.481719970703125,0.024640678238704403
42,1732020071.4914765,0.6312373280525208,0.7135783433914185,34.4933967590332,0.023958089497835573
43,1732020071.5044763,0.6506213843822479,0.7135783433914185,34.505706787109375,0.02330779083563489
44,1732020071.5164874,0.6699022948741913,0.7379645705223083,34.51709747314453,0.02269814560258629
45,1732020071.5284882,0.7043983638286591,0.7379645705223083,34.539241790771484,0.022128193671502844
46,1732020071.5414877,0.7230035066604614,0.7623617053031921,34.55155563354492,0.02159483575373725
47,1732020071.553488,0.741091787815094,0.7623617053031921,34.56380844116211,0.02109480192705842
48,1732020071.5664876,0.7595368325710297,0.7867485880851746,34.573814392089844,0.02069412580530213
49,1732020071.5784876,0.7978495955467224,0.7867485880851746,34.59579086303711,0.020319610041979255
50,1732020071.5914764,0.8167642652988434,0.8111350536346436,34.60763931274414,0.020043123918119046
51,1732020071.6035204,0.8360071182250977,0.8111350536346436,34.61811065673828,0.019777768096932446
52,1732020071.6165123,0.855647474527359,0.835510790348053,34.62736892700195,0.01960817325110019
53,1732020071.6285133,0.8911516964435577,0.835510790348053,34.64692687988281,0.019448862914694373
54,1732020071.6414893,0.9063064455986023,0.8599323034286499,34.656822204589844,0.019419604341196738
55,1732020071.6536927,0.9208519756793976,0.8599323034286499,34.66533660888672,0.019401092872030484
56,1732020071.6657066,0.9350652694702148,0.8842964172363281,34.67350769042969,0.01949951291382934
57,1732020071.677744,0.9626725316047668,0.8842964172363281,34.68903732299805,0.0196270597231444
58,1732020071.6907392,0.9745599925518036,0.9079196453094482,34.69668960571289,0.019976758971994187
59,1732020071.7036939,0.9851014912128448,0.9079196453094482,34.70376205444336,0.020354624143408297
60,1732020071.7166934,0.9963648319244385,0.9323378801345825,34.71066665649414,0.02097955395385613
61,1732020071.7287328,1.0216909348964691,0.9323378801345825,34.72504806518555,0.021674403991743835
62,1732020071.741728,1.0343981385231018,0.9576553106307983,34.73080062866211,0.022762406122486215
63,1732020071.7547052,1.0463526248931885,0.9576553106307983,34.736263275146484,0.023740827219307797
64,1732020071.7667403,1.0564681887626648,0.9820757508277893,34.74138641357422,0.02505188436206017
65,1732020071.7797348,1.070938766002655,0.9820757508277893,34.75191116333008,0.026272938408516352
66,1732020071.7927423,1.0775155425071716,1.006474256515503,34.75766372680664,0.027574961565192794
67,1732020071.8057284,1.085034966468811,1.006474256515503,34.76410675048828,0.028920579119553792
68,1732020071.8177385,1.0934333205223083,1.0318381786346436,34.77020263671875,0.030215413344529832
69,1732020071.830738,1.1142582893371582,1.0318381786346436,34.7810173034668,0.0314734679960855
70,1732020071.8437152,1.1253585815429688,1.0562211275100708,34.7862548828125,0.03268898822399808
71,1732020071.8557377,1.1354010701179504,1.0562211275100708,34.79108810424805,0.033741771854753785
72,1732020071.868731,1.1440515518188477,1.0815603733062744,34.795284271240234,0.03476623118918731
73,1732020071.8817053,1.1574996709823608,1.0815603733062744,34.804832458496094,0.03541381474734778
74,1732020071.893742,1.1638208627700806,1.1059623956680298,34.81035614013672,0.03619012854756208
75,1732020071.9067054,1.1713863611221313,1.1059623956680298,34.81524658203125,0.03697907847697698
76,1732020071.9197054,1.1900251507759094,1.1303597688674927,34.823760986328125,0.036385862954275275
77,1732020071.9327052,1.1994342803955078,1.1303597688674927,34.827903747558594,0.03595537335677427
78,1732020071.9457054,1.2083815932273865,1.1556860208511353,34.83152389526367,0.035736770325930256
79,1732020071.9577062,1.2162540555000305,1.1556860208511353,34.835205078125,0.03553370019259871
80,1732020071.970693,1.227834165096283,1.1810481548309326,34.8414192199707,0.03544797715958495
81,1732020071.982705,1.2325248718261719,1.1810481548309326,34.84463882446289,0.03529227607622628
82,1732020071.9957047,1.2365347146987915,1.2054226398468018,34.84791946411133,0.03512606583394007
83,1732020072.0087063,1.2403727769851685,1.2054226398468018,34.8520622253418,0.03502689543983992
84,1732020072.0207405,1.2512593865394592,1.2298206090927124,34.8602294921875,0.034591125639870664
85,1732020072.0337052,1.2581044435501099,1.2298206090927124,34.86465835571289,0.03434916148417732
86,1732020072.0457277,1.2663754224777222,1.2542420625686646,34.86909103393555,0.03411201329380459
87,1732020072.0577385,1.2868346571922302,1.2542420625686646,34.8784065246582,0.03403702363088893
88,1732020072.0707362,1.2978754043579102,1.278616189956665,34.8824348449707,0.03383711451037377
89,1732020072.083733,1.308634340763092,1.278616189956665,34.88623046875,0.033616173032614445
90,1732020072.096705,1.3183758854866028,1.3030110597610474,34.88979721069336,0.03351673097642617
91,1732020072.1087358,1.3330343961715698,1.3030110597610474,34.89854049682617,0.03351724917798361
92,1732020072.1217055,1.3402404189109802,1.3283425569534302,34.90348815917969,0.03354677692153264
93,1732020072.1337333,1.3491643071174622,1.3283425569534302,34.908721923828125,0.03373836734978744
94,1732020072.1467414,1.359870195388794,1.3527297973632812,34.914188385009766,0.03387699768622269
95,1732020072.1597376,1.3875506520271301,1.3527297973632812,34.92638397216797,0.03421211685847834
96,1732020072.1717398,1.4030368328094482,1.377151370048523,34.93109893798828,0.034553981090589714
97,1732020072.1847293,1.4174280166625977,1.377151370048523,34.935874938964844,0.0349126082047859
98,1732020072.1967316,1.429842472076416,1.401536464691162,34.94053268432617,0.03516295408174746
99,1732020072.2097323,1.4505440592765808,1.401536464691162,34.9500846862793,0.035409830331492594
100,1732020072.2217324,1.4602227807044983,1.4259148836135864,34.954280853271484,0.035706942739803946
101,1732020072.2337365,1.4700194001197815,1.4259148836135864,34.95899963378906,0.03600074839239063
102,1732020072.2467346,1.479742407798767,1.450302243232727,34.963829040527344,0.03647421404699751
103,1732020072.259728,1.4979138374328613,1.450302243232727,34.972862243652344,0.037012087747278224
104,1732020072.27174,1.5075842142105103,1.4746910333633423,34.97654342651367,0.03766344557239629
105,1732020072.2847383,1.516751229763031,1.4746910333633423,34.980567932128906,0.038231277719444186
106,1732020072.2977386,1.5247154831886292,1.4990828037261963,34.9840202331543,0.038810763959860335
107,1732020072.3107054,1.5380539298057556,1.4990828037261963,34.99081039428711,0.0391164321793099
108,1732020072.3227391,1.5433444380760193,1.524443507194519,34.99391555786133,0.03973331592318234
109,1732020072.3357291,1.547346591949463,1.524443507194519,34.99702453613281,0.040256251396269954
110,1732020072.34873,1.5546082258224487,1.548830509185791,35.00323486328125,0.0399679142250401
111,1732020072.361735,1.558400571346283,1.548830509185791,35.006568908691406,0.0396871367556258
112,1732020072.3747294,1.5628312230110168,1.5741838216781616,35.010250091552734,0.0392171252038244
113,1732020072.387705,1.568797767162323,1.5741838216781616,35.01393508911133,0.038832047575667224
114,1732020072.3997416,1.5833606719970703,1.5995452404022217,35.02175521850586,0.03826266474481349
115,1732020072.4127269,1.591125726699829,1.5995452404022217,35.02635955810547,0.037649248438679506
116,1732020072.4257398,1.59996098279953,1.62394380569458,35.03102111816406,0.0368153421410352
117,1732020072.4377406,1.6102232336997986,1.62394380569458,35.0360221862793,0.036027338504352864
118,1732020072.4507308,1.6353009343147278,1.649303913116455,35.04522705078125,0.03494751336386087
119,1732020072.4627674,1.6492480039596558,1.649303913116455,35.05011749267578,0.033986698900553135
120,1732020072.4756935,1.6627230048179626,1.6736817359924316,35.05488967895508,0.033065289689504396
121,1732020072.4876938,1.6876060962677002,1.6736817359924316,35.065765380859375,0.0323878575266033
122,1732020072.499705,1.70029217004776,1.6980319023132324,35.072265625,0.03206042842423584
123,1732020072.5117054,1.7141096591949463,1.6980319023132324,35.08002853393555,0.03195732888301312
124,1732020072.5247052,1.7310799956321716,1.7214545011520386,35.086185455322266,0.031757986493886406
125,1732020072.5367062,1.7513538002967834,1.7214545011520386,35.091880798339844,0.03164936109451731
126,1732020072.5497053,1.791205108165741,1.7458410263061523,35.10223388671875,0.03119967676611197
127,1732020072.5617056,1.8065176010131836,1.7458410263061523,35.1064338684082,0.030929614654881827
128,1732020072.574705,1.818544626235962,1.7702277898788452,35.11005783081055,0.030762506806882983
129,1732020072.5876935,1.8272271752357483,1.7702277898788452,35.11437225341797,0.030707890682547777
130,1732020072.5996935,1.8385027050971985,1.7946139574050903,35.12311553955078,0.0306870770616497
131,1732020072.6117053,1.8444666862487793,1.7946139574050903,35.12737274169922,0.030660448118731264
132,1732020072.6247046,1.8520472645759583,1.8189893960952759,35.1312255859375,0.03059655776144703
133,1732020072.6367345,1.8607293963432312,1.8189893960952759,35.13542556762695,0.030519168791368362
134,1732020072.6487393,1.8777603507041931,1.8433868885040283,35.143192291259766,0.030638224974746785
135,1732020072.6616938,1.8853759765625,1.8433868885040283,35.14681625366211,0.030820875625737265
136,1732020072.673705,1.8928976655006409,1.8668317794799805,35.150211334228516,0.03119008437776067
137,1732020072.6867273,1.9000480771064758,1.8668317794799805,35.15337371826172,0.031616246589870736
138,1732020072.699705,1.9106997847557068,1.8911850452423096,35.15998840332031,0.03217537706093623
139,1732020072.711705,1.9149080514907837,1.8911850452423096,35.163726806640625,0.032557586997717325
140,1732020072.7246938,1.919736385345459,1.9165469408035278,35.167755126953125,0.03310363196131859
141,1732020072.7377062,1.9261996150016785,1.9165469408035278,35.172298431396484,0.03376507903156227
142,1732020072.7497337,1.9457480907440186,1.940922498703003,35.18150329589844,0.03417387250081491
143,1732020072.7627287,1.9586116671562195,1.940922498703003,35.186336517333984,0.034558702421329544
144,1732020072.77573,1.9723491072654724,1.9653480052947998,35.19064712524414,0.034787402074464076
145,1732020072.7887297,1.997832179069519,1.9653480052947998,35.197898864746094,0.03498453358196728
146,1732020072.801734,2.0073564648628235,1.990706443786621,35.20123291015625,0.03484181911692183
147,1732020072.813735,2.0142208337783813,1.990706443786621,35.204627990722656,0.0345752989585265
148,1732020072.8266935,2.019738793373108,2.0160725116729736,35.20836639404297,0.034466165781175895
149,1732020072.8396938,2.0324237942695618,2.0160725116729736,35.217742919921875,0.034541380536695546
150,1732020072.8517263,2.0419573187828064,2.040419578552246,35.222862243652344,0.03442727592480799
151,1732020072.863728,2.054395854473114,2.040419578552246,35.22867202758789,0.03449857592784721
152,1732020072.8758113,2.0693113803863525,2.064838171005249,35.23453903198242,0.034415351839691626
153,1732020072.8878224,2.103275954723358,2.064838171005249,35.24397277832031,0.034543117128458825
154,1732020072.8998263,2.1200016736984253,2.088332176208496,35.2480583190918,0.03474847547052551
155,1732020072.9127948,2.133757472038269,2.088332176208496,35.25202941894531,0.03499661040459497
156,1732020072.9257848,2.144124746322632,2.11175799369812,35.25571060180664,0.03509354839164993
157,1732020072.9377944,2.157807230949402,2.11175799369812,35.26284408569336,0.035117906327000084
158,1732020072.9498177,2.162886381149292,2.1370794773101807,35.26634979248047,0.0352543781652607
159,1732020072.9627936,2.1674067974090576,2.1370794773101807,35.269920349121094,0.035391775410284765
160,1732020072.9748108,2.172327756881714,2.160522699356079,35.27360153198242,0.035775227970698625
161,1732020072.9868286,2.178209662437439,2.160522699356079,35.27791213989258,0.03621310655190273
162,1732020072.9988291,2.1936734914779663,2.1849026679992676,35.285797119140625,0.035670689655069025
163,1732020073.010916,2.202694535255432,2.1849026679992676,35.28936004638672,0.035596611570766726
164,1732020073.0229528,2.211561441421509,2.20833158493042,35.29298400878906,0.03562713188360735
165,1732020073.0359173,2.2196942567825317,2.20833158493042,35.29684066772461,0.035868812180435104
166,1732020073.04795,2.2349727153778076,2.231863260269165,35.304203033447266,0.03619877941329072
167,1732020073.0609162,2.2422581911087036,2.231863260269165,35.307884216308594,0.0365435748271834
168,1732020073.0729165,2.2493371963500977,2.2562472820281982,35.311622619628906,0.036827025396170415
169,1732020073.0849419,2.25711452960968,2.2562472820281982,35.31547927856445,0.03699244566191035
170,1732020073.097942,2.2656521797180176,2.2806010246276855,35.319271087646484,0.037231672621626834
171,1732020073.1109412,2.2828279733657837,2.2806010246276855,35.327728271484375,0.03724108120816277
172,1732020073.1229424,2.2924482822418213,2.3050127029418945,35.33204650878906,0.03722007332161659
173,1732020073.135916,2.303075909614563,2.3050127029418945,35.33670425415039,0.03728576533122892
174,1732020073.1479473,2.3280603885650635,2.329399585723877,35.34659957885742,0.03601331348381073
175,1732020073.1599498,2.3426989316940308,2.329399585723877,35.35097122192383,0.035352563501849454
176,1732020073.1729164,2.3570363521575928,2.3537909984588623,35.35511016845703,0.03482200020532729
177,1732020073.1849442,2.369443416595459,2.3537909984588623,35.359310150146484,0.034748559644647736
178,1732020073.1979163,2.3798744678497314,2.3781473636627197,35.363162994384766,0.03475209440364984
179,1732020073.2099164,2.39771044254303,2.3781473636627197,35.371910095214844,0.03503817162431372
180,1732020073.2229161,2.406708002090454,2.402533769607544,35.376163482666016,0.03508087739214682
181,1732020073.2359045,2.41658616065979,2.402533769607544,35.380882263183594,0.03521412196635052
182,1732020073.247905,2.4380804300308228,2.426920175552368,35.39141082763672,0.03470322526585023
183,1732020073.2599175,2.451066255569458,2.426920175552368,35.39606857299805,0.034711676795103785
184,1732020073.2729492,2.465260624885559,2.451295852661133,35.400264739990234,0.034529870413677666
185,1732020073.2859337,2.478955864906311,2.451295852661133,35.40423583984375,0.03452273368501971
186,1732020073.297943,2.500391721725464,2.4757256507873535,35.4121208190918,0.03455604420302191
187,1732020073.3109162,2.5084179639816284,2.4757256507873535,35.415626525878906,0.03468254743097316
188,1732020073.323905,2.515316963195801,2.5001060962677,35.41902160644531,0.03480014090011797
189,1732020073.335937,2.521209478378296,2.5001060962677,35.42241287231445,0.03490497850719347
190,1732020073.348939,2.5309032201766968,2.5254311561584473,35.42983627319336,0.03493804164239694
191,1732020073.3609397,2.53563129901886,2.5254311561584473,35.434322357177734,0.034852729089637956
192,1732020073.3729413,2.5428531169891357,2.5498507022857666,35.438751220703125,0.034813035664779265
193,1732020073.385903,2.5533565282821655,2.5498507022857666,35.44318389892578,0.03482067321642249
194,1732020073.3979158,2.5779240131378174,2.5732641220092773,35.451637268066406,0.03494012081537255
195,1732020073.409916,2.5897421836853027,2.5732641220092773,35.4554328918457,0.03517993888777741
196,1732020073.4229045,2.600371241569519,2.597625970840454,35.459171295166016,0.03547908680011851
197,1732020073.43495,2.609204411506653,2.597625970840454,35.46245193481445,0.03579716294738671
198,1732020073.4469576,2.6163991689682007,2.6220016479492188,35.46527099609375,0.035655589339730336
199,1732020073.4599464,2.6262086629867554,2.6220016479492188,35.47154235839844,0.03559811355554807
200,1732020073.472942,2.62833034992218,2.6454644203186035,35.47550964355469,0.035621398540291914
201,1732020073.4859443,2.631784439086914,2.6454644203186035,35.479881286621094,0.03582304725225603
202,1732020073.498944,2.6474499702453613,2.670811414718628,35.489200592041016,0.03531214696177097
203,1732020073.5119112,2.6601423025131226,2.670811414718628,35.49443435668945,0.03513224327869641
204,1732020073.5249176,2.675376057624817,2.6961753368377686,35.499324798583984,0.034849604108698015
205,1732020073.5369318,2.692102789878845,2.6961753368377686,35.50398254394531,0.034799297650546
206,1732020073.5499046,2.724130868911743,2.7215116024017334,35.51140213012695,0.034828985854885135
207,1732020073.561916,2.736196517944336,2.7215116024017334,35.51474380493164,0.03494028162202342
