,Time,Force,GoalForce,Pos,k
0,1731420816.0696826,0.1534413769841194,0.153315931558609,35.00444412231445,0.04
1,1731420816.0796883,0.1539525166153907,0.153315931558609,35.00438690185547,0.04
2,1731420816.0896995,0.1545956656336784,0.1872034519910812,35.00438690185547,0.04
3,1731420816.099682,0.1547017470002174,0.1872034519910812,35.00455856323242,0.04
4,1731420816.109682,0.1544688493013382,0.2211034744977951,35.00513458251953,0.04
5,1731420816.1196885,0.1548475846648216,0.2211034744977951,35.00639724731445,0.04
6,1731420816.1306798,0.1558261066675186,0.2566293478012085,35.00777816772461,0.04
7,1731420816.1396756,0.1572143137454986,0.2566293478012085,35.009910583496094,0.04
8,1731420816.1496892,0.1594070941209793,0.290535420179367,35.01232147216797,0.04
9,1731420816.1596768,0.1628221347928047,0.290535420179367,35.015892028808594,0.04
10,1731420816.1696815,0.1658408641815185,0.3260568380355835,35.019744873046875,0.04
11,1731420816.1797123,0.170427531003952,0.3260568380355835,35.02411651611328,0.04
12,1731420816.1896832,0.1761039644479751,0.3599601089954376,35.027626037597656,0.04
13,1731420816.2001607,0.182939164340496,0.3599601089954376,35.03147888183594,0.04
14,1731420816.2096698,0.1900619491934776,0.3938367068767547,35.035621643066406,0.04
15,1731420816.2196589,0.1968893557786941,0.3938367068767547,35.04056930541992,0.04
16,1731420816.2296655,0.204332560300827,0.4292709231376648,35.0450553894043,0.04
17,1731420816.2396448,0.2124424055218696,0.4292709231376648,35.04994583129883,0.04
18,1731420816.2496762,0.220873937010765,0.4631386697292328,35.054718017578125,0.04
19,1731420816.2596383,0.2294070646166801,0.4631386697292328,35.06047058105469,0.04
20,1731420816.2696447,0.2386549860239029,0.4970746338367462,35.06633758544922,0.04
21,1731420816.2796383,0.2483944296836853,0.4970746338367462,35.07255172729492,0.04
22,1731420816.2896447,0.258390724658966,0.5325859189033508,35.078819274902344,0.04
23,1731420816.2996385,0.269068568944931,0.5325859189033508,35.086299896240234,0.04
24,1731420816.3096397,0.281376302242279,0.5681456923484802,35.09314727783203,0.0397094004452228
25,1731420816.319645,0.2948920279741287,0.5681456923484802,35.09993362426758,0.0393910557568073
26,1731420816.329676,0.3088681697845459,0.6036877036094666,35.10649108886719,0.0391264070308208
27,1731420816.3396747,0.3228279650211334,0.6036877036094666,35.113914489746094,0.0388945237609148
28,1731420816.3496385,0.3367102295160293,0.6375752091407776,35.12150573730469,0.0385499484818339
29,1731420816.3596382,0.35078264772892,0.6375752091407776,35.130882263183594,0.0382628731412732
30,1731420816.3696396,0.3662848472595215,0.6714425683021545,35.14106369018555,0.0373112081348637
31,1731420816.3796508,0.3838826268911361,0.6714425683021545,35.15049743652344,0.0365379406237369
32,1731420816.3896773,0.4032634794712066,0.705356776714325,35.160335540771484,0.0355330337858586
33,1731420816.399651,0.4233561903238296,0.705356776714325,35.17022705078125,0.0346484706350912
34,1731420816.409676,0.4439589530229568,0.705356776714325,35.182132720947266,0.0339709915711358
35,1731420816.4196444,0.4660902470350265,0.7408506870269775,35.19312286376953,0.0335289707476385
36,1731420816.42968,0.4897740334272384,0.7747377753257751,35.20353317260742,0.0331381769726712
37,1731420816.4396708,0.5141292959451675,0.7747377753257751,35.21290969848633,0.0328361141756211
38,1731420816.4496722,0.5383254885673523,0.7747377753257751,35.222747802734375,0.0326665489144654
39,1731420816.4596715,0.5619207620620728,0.8086442351341248,35.233158111572266,0.0325721377820549
40,1731420816.4696448,0.5847427845001221,0.8086442351341248,35.24357223510742,0.0324915632329087
41,1731420816.4796448,0.6074211299419403,0.8441657423973083,35.253292083740234,0.0326176212479204
42,1731420816.489647,0.6304297745227814,0.8441657423973083,35.26215362548828,0.0327713308110413
43,1731420816.5006714,0.6535991430282593,0.8797170519828796,35.27204513549805,0.033104381028525
44,1731420816.509651,0.6763429939746857,0.8797170519828796,35.282745361328125,0.0334645418647336
45,1731420816.5196395,0.69930499792099,0.9135911464691162,35.29413604736328,0.0336326062670416
46,1731420816.5296762,0.7238212823867798,0.9135911464691162,35.30403137207031,0.0337861523024201
47,1731420816.539676,0.7493323981761932,0.947501301765442,35.31357955932617,0.0338579653941357
48,1731420816.5496757,0.7750019729137421,0.947501301765442,35.32358932495117,0.0338142437555877
49,1731420816.5596397,0.8003131449222565,0.983056664466858,35.33359909057617,0.0337667660699922
50,1731420816.5696385,0.8258586823940277,0.983056664466858,35.34366226196289,0.0337554541337465
51,1731420816.5796382,0.8509854972362518,1.0,35.35148620605469,0.033250965552745
52,1731420816.5896506,0.874470442533493,1.0,35.35948181152344,0.032683946343259
53,1731420816.5996656,0.8962743580341339,1.0,35.3662109375,0.0321212904024088
54,1731420816.6096542,0.9163230359554292,1.0,35.372196197509766,0.0316056050838199
55,1731420816.619651,0.9338142573833466,1.0,35.377777099609375,0.0312260628176779
56,1731420816.6296458,0.9483464956283568,1.0,35.3830680847168,0.0309437629595146
57,1731420816.6396394,0.960864782333374,1.0,35.387901306152344,0.0306817373572062
58,1731420816.6496384,0.9723269641399384,1.0,35.39267349243164,0.0304026305396799
59,1731420816.6596396,0.9830676317214966,1.0,35.39756393432617,0.0300768216821054
60,1731420816.6696382,0.9942175149917604,1.0200214385986328,35.403202056884766,0.0297101639544218
61,1731420816.6806371,1.0065652430057526,1.041999340057373,35.40901184082031,0.0293487048448845
62,1731420816.6906388,1.019931584596634,1.0621294975280762,35.414649963378906,0.0289897137181512
63,1731420816.6996384,1.0338384807109833,1.0840296745300293,35.42091751098633,0.028678638373007
64,1731420816.7096398,1.0484424531459808,1.1040682792663574,35.427764892578125,0.0283789175830987
65,1731420816.719674,1.0641047358512878,1.1240801811218262,35.4354133605957,0.0279327594264782
66,1731420816.7296522,1.0812757015228271,1.1240801811218262,35.44456100463867,0.0273328848652037
67,1731420816.739651,1.1004833579063416,1.146068096160889,35.454742431640625,0.0264382702161663
68,1731420816.7496383,1.1229150295257568,1.168022632598877,35.46337127685547,0.025520681624096
69,1731420816.7596507,1.1478224992752075,1.1880745887756348,35.47222900390625,0.0246447709511054
70,1731420816.7696755,1.1734036803245544,1.2100191116333008,35.4804573059082,0.0239157182926237
71,1731420816.7806518,1.198853611946106,1.2300691604614258,35.489200592041016,0.0232252987880378
72,1731420816.7896447,1.2242500185966492,1.252021312713623,35.49817657470703,0.0225264810167732
73,1731420816.7996385,1.2490773797035215,1.2720236778259275,35.5064582824707,0.0218826904275699
74,1731420816.8096387,1.2721840143203735,1.2920743227005005,35.514625549316406,0.0212550759691313
75,1731420816.8196385,1.293720245361328,1.3140220642089844,35.52204513549805,0.0208605414594694
76,1731420816.8296394,1.3148640990257263,1.3340229988098145,35.52941131591797,0.0206580831228629
77,1731420816.8396745,1.3358211517333984,1.35599946975708,35.53752136230469,0.0205064962314608
78,1731420816.849672,1.3563302755355835,1.3760666847229004,35.54615020751953,0.0203733941546418
79,1731420816.859645,1.377081573009491,1.3980712890625,35.55524063110352,0.0203085087804202
80,1731420816.8696513,1.399137794971466,1.4200501441955566,35.56404113769531,0.0203509386019293
81,1731420816.8796444,1.422494888305664,1.4420099258422852,35.57157516479492,0.0204360594424352
82,1731420816.8896756,1.4461457133293152,1.462025165557861,35.57963180541992,0.0205259892782043
83,1731420816.8996508,1.46956604719162,1.482086181640625,35.58883285522461,0.0205294257498208
84,1731420816.9096396,1.4930127263069153,1.5040254592895508,35.59872817993164,0.0205525101583979
85,1731420816.9196513,1.5170224905014038,1.5040254592895508,35.608734130859375,0.0205466329778833
86,1731420816.9296722,1.5420771837234497,1.546022891998291,35.61678695678711,0.0205086051054838
87,1731420816.9396396,1.5678532123565674,1.5660723447799685,35.624839782714844,0.0204329473416247
88,1731420816.9496386,1.593349277973175,1.5660723447799685,35.63255310058594,0.0203783859810446
89,1731420816.9596443,1.616962969303131,1.5880708694458008,35.639739990234375,0.0202276874334706
90,1731420816.9696398,1.638286530971527,1.6100064516067505,35.64704895019531,0.0200777295977854
91,1731420816.9806397,1.6585100889205933,1.632074236869812,35.65400695800781,0.0200472136960313
92,1731420816.9896398,1.6782494187355042,1.654078483581543,35.66044998168945,0.0200803924538986
93,1731420816.9996722,1.6971095204353333,1.675999641418457,35.66700744628906,0.0201230515707996
94,1731420817.009653,1.715031087398529,1.6960654258728027,35.673851013183594,0.0201931993367791
95,1731420817.0216522,1.732655644416809,1.7180490493774414,35.68041229248047,0.0203209877195227
96,1731420817.030651,1.750146985054016,1.7381192445755005,35.68714141845703,0.0205238984688164
97,1731420817.0396483,1.767996966838837,1.7600202560424805,35.69438934326172,0.0207476637882627
98,1731420817.0496457,1.7871671319007874,1.7820253372192385,35.70169448852539,0.021000384840903
99,1731420817.0596466,1.8076648712158203,1.803999900817871,35.70957565307617,0.0212605586009061
100,1731420817.0696385,1.8291088938713076,1.803999900817871,35.717918395996094,0.0215389893150481
101,1731420817.079672,1.8516493439674375,1.8259992599487305,35.725223541259766,0.0218524103116529
102,1731420817.0906403,1.8753454089164732,1.8460675477981567,35.73218536376953,0.022160054572064
103,1731420817.0996392,1.8990978598594663,1.8660718202590945,35.73908615112305,0.0224405308016881
104,1731420817.1096396,1.921501994132996,1.8879987001419067,35.74570083618164,0.0226980395867298
105,1731420817.1206448,1.942156493663788,1.9079995155334477,35.75271987915039,0.0229565352055911
106,1731420817.13164,1.9618476033210757,1.9280413389205933,35.760311126708984,0.0231557432431117
107,1731420817.1396449,1.9819335341453552,1.950058460235596,35.76715850830078,0.0233338145421268
108,1731420817.149646,2.003118991851806,1.9720247983932493,35.773372650146484,0.0235194108715345
109,1731420817.1596572,2.0249325037002563,1.992074012756348,35.779296875,0.0236798368541022
110,1731420817.1696692,2.0462213158607483,2.014046669006348,35.78498840332031,0.0238722107318896
111,1731420817.1796465,2.065641522407532,2.0340685844421387,35.7900505065918,0.0242854624844663
112,1731420817.1896403,2.0823073983192444,2.055999279022217,35.79517364501953,0.0249858140072589
113,1731420817.1996665,2.096670925617218,2.0760626792907715,35.80080795288086,0.0256384694535761
114,1731420817.2096393,2.11004102230072,2.096066951751709,35.806793212890625,0.0261541063525583
115,1731420817.219674,2.1237425804138184,2.1180453300476074,35.81254577636719,0.0267563623134767
116,1731420817.2296453,2.138972043991089,2.1380715370178223,35.81818389892578,0.0273879434416719
117,1731420817.2396538,2.156096577644348,2.160067081451416,35.82381820678711,0.0279542870000029
118,1731420817.2496731,2.1737260818481445,2.1820778846740723,35.82893753051758,0.0285598095513902
119,1731420817.259676,2.190296769142151,2.204070568084717,35.83371353149414,0.0292644413194825
120,1731420817.2696395,2.205814242362976,2.226067066192627,35.83808517456055,0.0300942979200277
121,1731420817.2796395,2.220301032066345,2.226067066192627,35.842742919921875,0.0309200645485752
122,1731420817.289709,2.233541965484619,2.248000144958496,35.84820938110352,0.0316325644552022
123,1731420817.3006375,2.246530055999756,2.268074512481689,35.854248046875,0.031832856601415
124,1731420817.309654,2.261147379875183,2.290060520172119,35.8604621887207,0.0321255748712461
125,1731420817.3196726,2.2779557704925537,2.3120598793029785,35.86696243286133,0.0324746661105848
126,1731420817.330639,2.296463131904602,2.33206558227539,35.873291015625,0.0327125438498643
127,1731420817.3396385,2.3168721199035645,2.353999137878418,35.87881088256836,0.0330606403303612
128,1731420817.3496432,2.338419198989868,2.3740687370300293,35.88399124145508,0.0334678339081229
129,1731420817.3596509,2.359361171722412,2.394073486328125,35.88945388793945,0.0335964934185643
130,1731420817.3696384,2.378208875656128,2.416023731231689,35.89514923095703,0.0333836712976246
131,1731420817.379651,2.3952596187591557,2.4379982948303223,35.90118789672852,0.0329346139913752
132,1731420817.389672,2.412394762039185,2.4580230712890625,35.907806396484375,0.0322206734212596
133,1731420817.4503016,2.4309682846069336,2.4780678749084477,35.91499328613281,0.0313430525221549
134,1731420817.4526515,2.541003942489624,2.58204984664917,35.94830322265625,0.0308180985472908
135,1731420817.4696455,2.562614679336548,2.58204984664917,35.955204010009766,0.0299066426341811
136,1731420817.4736536,2.584709644317627,2.6060450077056885,35.96274185180664,0.028974554231919
137,1731420817.4806433,2.606932282447815,2.628006935119629,35.969757080078125,0.0279516479368423
138,1731420817.4906497,2.62970769405365,2.648073196411133,35.97694778442383,0.0268088783096147
139,1731420817.499666,2.653153419494629,2.6680874824523926,35.98454284667969,0.0256790268290823
140,1731420817.5096438,2.6771109104156494,2.690049648284912,35.99184799194336,0.024820975582491
141,1731420817.5196662,2.7008692026138306,2.7120656967163086,35.99903869628906,0.0241608439347363
142,1731420817.5306628,2.724195718765259,2.7320666313171387,36.00680160522461,0.0235909938554063
143,1731420817.5396595,2.747836112976074,2.7540483474731445,36.01411056518555,0.0231204294553484
144,1731420817.5496778,2.7722530364990234,2.7740674018859863,36.02170181274414,0.0227237966708319
145,1731420817.5596724,2.797170042991638,2.796069860458374,36.02946853637695,0.0223475534440854
146,1731420817.5696723,2.822445869445801,2.8181676864624023,36.03660202026367,0.0220873057071965
147,1731420817.5797632,2.847711443901062,2.8401312828063965,36.04333114624024,0.0219438641570152
148,1731420817.5896988,2.8715277910232544,2.8601415157318115,36.05017852783203,0.0217926234500534
149,1731420817.5996923,2.8936569690704346,2.882139205932617,36.05708312988281,0.0217758250680798
150,1731420817.6096802,2.9154714345932007,2.9041342735290527,36.0640983581543,0.0219990405393154
151,1731420817.619674,2.937625765800476,2.9041342735290527,36.07197952270508,0.0223530729519585
152,1731420817.6307137,2.960047483444214,2.926091194152832,36.07957077026367,0.0227036768487626
153,1731420817.639705,2.982750415802002,2.948071956634521,36.0863037109375,0.0232207475714266
154,1731420817.649697,3.006250739097595,2.9681363105773926,36.092803955078125,0.0238424445193154
155,1731420817.659671,3.0299391746521,2.9901115894317627,36.09901428222656,0.0244463343919344
156,1731420817.6696734,3.052310347557068,3.0121169090271,36.104251861572266,0.0251320020408357
157,1731420817.6796918,3.072884321212769,3.0340676307678223,36.10931396484375,0.0258678133980267
158,1731420817.6897037,3.091218113899231,3.054140567779541,36.11471939086914,0.0263787314545362
159,1731420817.6996725,3.107830047607422,3.076138496398926,36.120643615722656,0.0268454353363439
160,1731420817.709674,3.1236283779144287,3.0981693267822266,36.12628173828125,0.0273037433938197
161,1731420817.720715,3.139928102493286,3.120068073272705,36.13186264038086,0.0278210246100436
162,1731420817.7307444,3.157339334487915,3.1400909423828125,36.137325286865234,0.0283291279704342
163,1731420817.7396736,3.1751214265823364,3.160132646560669,36.14238739013672,0.0289304317770275
164,1731420817.7506795,3.1919766664505005,3.1821603775024414,36.14699172973633,0.0296225573186164
165,1731420817.7596736,3.2074462175369263,3.204068183898926,36.15142059326172,0.0303862885145025
166,1731420817.7696738,3.2216402292251587,3.204068183898926,36.15607833862305,0.0310405358380982
167,1731420817.7796726,3.2351436614990234,3.226067543029785,36.16114044189453,0.0317166892922141
168,1731420817.789674,3.248817682266236,3.246068000793457,36.1661491394043,0.032278353935738
169,1731420817.7996738,3.2631382942199707,3.2860913276672363,36.1712646484375,0.0327584892209705
170,1731420817.8096747,3.278558373451233,3.2860913276672363,36.17661666870117,0.0328994974222484
171,1731420817.8196726,3.29504656791687,3.308065891265869,36.18207931518555,0.033240882431868
172,1731420817.8306715,3.3126999139785767,3.3280935287475586,36.187259674072266,0.0329937429729729
173,1731420817.8396957,3.33065664768219,3.3500900268554688,36.19186019897461,0.0327036904025342
174,1731420817.8496842,3.3477463722229004,3.3701086044311523,36.1962890625,0.0323886666129469
175,1731420817.8596742,3.3629868030548096,3.3921332359313965,36.20117950439453,0.0321935828489458
176,1731420817.8696735,3.377074599266052,3.414090156555176,36.206817626953125,0.0321115992333646
177,1731420817.8797123,3.3918009996414185,3.436068058013916,36.21342849731445,0.0319559449508329
178,1731420817.8897042,3.409372925758362,3.4561328887939453,36.22085189819336,0.0315274253089315
179,1731420817.8996854,3.4312669038772583,3.47613525390625,36.228965759277344,0.0307260252921956
180,1731420817.9097068,3.4579886198043823,3.498091220855713,36.23649978637695,0.02989178914331
181,1731420817.9196746,3.487840294837952,3.518135070800781,36.24386215209961,0.0289517866239184
182,1731420817.929674,3.518462538719177,3.540093421936035,36.25157165527344,0.0281364690138608
183,1731420817.939705,3.5485557317733765,3.5620903968811035,36.25927734375,0.0274995164981821
184,1731420817.9496734,3.5779298543930054,3.5840904712677,36.26704406738281,0.0268699624608164
185,1731420817.959685,3.606515765190125,3.60606861114502,36.2749252319336,0.0262099069106762
186,1731420817.9696853,3.63424301147461,3.60606861114502,36.28188705444336,0.0255114752127097
187,1731420817.9797015,3.661075472831726,3.626091718673706,36.28810119628906,0.0249171783542662
188,1731420817.989673,3.686224579811096,3.648091316223145,36.293907165527344,0.0246018056585815
189,1731420817.999673,3.70785927772522,3.668091535568237,36.29971694946289,0.0245121047956729
190,1731420818.009674,3.7260217666625977,3.6900627613067623,36.30506896972656,0.0246112241428778
191,1731420818.0196738,3.742023944854736,3.7100658416748047,36.310359954833984,0.0249367259739356
192,1731420818.0296855,3.756856679916382,3.73006534576416,36.3159408569336,0.0251517765863404
193,1731420818.0396726,3.771144390106201,3.750088691711426,36.32175064086914,0.025348390845388
194,1731420818.0506876,3.785228610038757,3.772134780883789,36.3272705078125,0.0256785436343519
195,1731420818.0596735,3.800374150276184,3.794092178344727,36.332969665527344,0.0261374449838431
196,1731420818.0697098,3.816599726676941,3.8140931129455566,36.33929443359375,0.0264988909163384
197,1731420818.079673,3.833499073982239,3.836091995239258,36.34573745727539,0.0269052050261177
198,1731420818.089674,3.8518728017807007,3.858067989349365,36.35149002075195,0.02727254622416
199,1731420818.0996962,3.872382164001465,3.880093574523926,36.3572998046875,0.0276348490035799
200,1731420818.1096735,3.89372992515564,3.902091264724731,36.36339569091797,0.0280025324388981
201,1731420818.1197066,3.9090036153793335,3.922091484069824,36.36938095092773,0.0283153727946854
202,1731420818.1297112,3.9278557300567623,3.9421353340148926,36.37541961669922,0.0285462567849317
203,1731420818.1396728,3.946146488189697,3.9621448516845694,36.381980895996094,0.0286131948658846
204,1731420818.1496737,3.965583443641663,3.9840917587280273,36.3895149230957,0.028460274675103
205,1731420818.1596742,3.9870312213897705,3.9840917587280273,36.39653015136719,0.0282167102369177
206,1731420818.169674,4.010644316673279,4.006068229675293,36.40314865112305,0.0280152938564874
207,1731420818.179672,4.036121606826782,4.026144027709961,36.40976333618164,0.0279648025080792
208,1731420818.189674,4.061632871627808,4.048091411590576,36.41591644287109,0.028091903261414
209,1731420818.199685,4.085900902748108,4.070065498352051,36.42161178588867,0.028305480911199
210,1731420818.209685,4.108218669891357,4.090088367462158,36.42765045166016,0.0284452665899966
211,1731420818.2196877,4.128413677215576,4.1120924949646,36.43375015258789,0.0284804483775592
