,Time,Force,GoalForce,Pos,k
0,1732176725.1413724,0.2066747099161148,0.20000000298023224,34.44496154785156,0.04
1,1732176725.1534092,0.1610199511051178,0.20000000298023224,34.47734832763672,0.04
2,1732176725.1664064,0.15731647610664368,0.20000000298023224,34.48603439331055,0.04
3,1732176725.1793714,0.15546546131372452,0.1610199511051178,34.48977279663086,0.04
4,1732176725.1923707,0.15454654395580292,0.1610199511051178,34.49345397949219,0.04
5,1732176725.2043717,0.15456297248601913,0.18674981594085693,34.4974250793457,0.04
6,1732176725.217371,0.15610529482364655,0.18674981594085693,34.5074348449707,0.04
7,1732176725.2294037,0.15815795958042145,0.2115265130996704,34.512149810791016,0.04
8,1732176725.241407,0.1607382968068123,0.2115265130996704,34.51704025268555,0.04
9,1732176725.2543597,0.16324717551469803,0.23633462190628052,34.5219841003418,0.04
10,1732176725.266405,0.17033006995916367,0.23633462190628052,34.53355026245117,0.04
11,1732176725.2793715,0.17530963569879532,0.26106736063957214,34.53982162475586,0.04
12,1732176725.2913816,0.1816764622926712,0.26106736063957214,34.54747009277344,0.04
13,1732176725.3043725,0.1886168271303177,0.28585541248321533,34.55437469482422,0.04
14,1732176725.3173707,0.198405459523201,0.28585541248321533,34.56645202636719,0.04
15,1732176725.3293712,0.20161240547895432,0.3106327950954437,34.57278060913086,0.04
16,1732176725.3423598,0.20504417270421982,0.3106327950954437,34.57904815673828,0.04
17,1732176725.3544102,0.20868165791034698,0.3354078233242035,34.585205078125,0.04
18,1732176725.3673909,0.21403048932552338,0.3354078233242035,34.600276947021484,0.04
19,1732176725.3794072,0.21607065200805664,0.36022281646728516,34.607872009277344,0.04
20,1732176725.3914087,0.2173934429883957,0.36022281646728516,34.61603927612305,0.04
21,1732176725.4034445,0.2177574560046196,0.3849961757659912,34.62345886230469,0.04
22,1732176725.4163723,0.2190244346857071,0.3849961757659912,34.64008331298828,0.04
23,1732176725.429379,0.22189465910196304,0.4088185429573059,34.64957809448242,0.04
24,1732176725.4423711,0.22630248218774796,0.4088185429573059,34.65952682495117,0.04
25,1732176725.4544308,0.23204124718904495,0.43452098965644836,34.66867446899414,0.04
26,1732176725.467372,0.2462868094444275,0.43452098965644836,34.6870231628418,0.04
27,1732176725.4793723,0.25357818603515625,0.4593487083911896,34.697208404541016,0.04
28,1732176725.4914036,0.2605985999107361,0.4593487083911896,34.708309173583984,0.04
29,1732176725.5034046,0.26713256537914276,0.48406705260276794,34.71843338012695,0.03799969615787268
30,1732176725.516404,0.2794257551431656,0.48406705260276794,34.73896789550781,0.03624061733260751
31,1732176725.528406,0.28644488751888275,0.5078843832015991,34.750240325927734,0.034621654732003806
32,1732176725.5413945,0.2935502827167511,0.5078843832015991,34.762149810791016,0.033180529281176624
33,1732176725.5543714,0.3003169596195221,0.532662034034729,34.77302169799805,0.03188226523668542
34,1732176725.5663729,0.31396402418613434,0.532662034034729,34.79798889160156,0.03072789187137164
35,1732176725.5793724,0.3210461586713791,0.5583952069282532,34.8113899230957,0.029666557534669732
36,1732176725.591406,0.32965220510959625,0.5583952069282532,34.82600402832031,0.028667058832169977
37,1732176725.6043708,0.3407638370990753,0.583172619342804,34.83894729614258,0.027676674197663134
38,1732176725.6163893,0.3665776699781418,0.583172619342804,34.87052536010742,0.026676404077305732
39,1732176725.628411,0.37965600192546844,0.6079474091529846,34.88709259033203,0.025569650991404954
40,1732176725.6413717,0.39265871047973633,0.6079474091529846,34.904579162597656,0.02439787893099627
41,1732176725.6534057,0.40538109838962555,0.6317726373672485,34.92367935180664,0.023041411789682876
42,1732176725.66636,0.43158136308193207,0.6317726373672485,34.95911407470703,0.02167714235403601
43,1732176725.6783707,0.4446480870246887,0.6565436720848083,34.97895812988281,0.0202576157481384
44,1732176725.6913714,0.45720018446445465,0.6565436720848083,34.99748229980469,0.018934754054031826
45,1732176725.7033715,0.46947868168354034,0.6812853217124939,35.018192291259766,0.01771650060030704
46,1732176725.7154095,0.49895356595516205,0.6812853217124939,35.067604064941406,0.01659177611817019
47,1732176725.7284029,0.5167418718338013,0.7060625553131104,35.09297561645508,0.015533164895392332
48,1732176725.7404053,0.5367760360240936,0.7060625553131104,35.11713409423828,0.014556096705183572
49,1732176725.7533822,0.5580428242683411,0.7308698892593384,35.14140701293945,0.013651743478970397
50,1732176725.7663853,0.6042226850986481,0.7308698892593384,35.2014045715332,0.012820363509935142
51,1732176725.7784107,0.6301420629024506,0.75562584400177,35.230857849121094,0.012048953631474377
52,1732176725.7914066,0.6581512987613678,0.75562584400177,35.25967788696289,0.011332592744934979
53,1732176725.8044016,0.6869246363639832,0.7804303765296936,35.28717803955078,0.010670799784489055
54,1732176725.8173597,0.7482091188430786,0.7804303765296936,35.35010528564453,0.01005528934460364
55,1732176725.8294196,0.7800500988960266,0.8061888813972473,35.379215240478516,0.009494519838644406
56,1732176725.843372,0.8060274124145508,0.8061888813972473,35.40808868408203,0.008986874292227633
57,1732176725.8563726,0.8689261376857758,0.83098304271698,35.46406173706055,0.00851470871375472
58,1732176725.8684056,0.8988266885280609,0.83098304271698,35.49092483520508,0.00805099206382606
59,1732176725.8813846,0.9278434813022614,0.8576949238777161,35.516815185546875,0.007603299141172234
60,1732176725.8943703,0.9557060897350311,0.8576949238777161,35.54252624511719,0.007168425605105159
61,1732176725.906404,1.0035117864608765,0.8824832439422607,35.58745193481445,0.006774664899325487
62,1732176725.9194076,1.0231484174728394,0.8824832439422607,35.61011505126953,0.006415286349497245
63,1732176725.932404,1.041871428489685,0.9072787761688232,35.63002014160156,0.006129862544827466
64,1732176725.94536,1.0598739981651306,0.9072787761688232,35.65372085571289,0.005866989293859426
65,1732176725.957393,1.0977147817611694,0.9330461621284485,35.69450378417969,0.005689799885451219
66,1732176725.9703743,1.1164592504501343,0.9330461621284485,35.71383285522461,0.005497952081709583
67,1732176725.98336,1.1336668729782104,0.9578115940093994,35.730743408203125,0.0053963243373031725
68,1732176725.995421,1.1601877808570862,0.9578115940093994,35.76445388793945,0.005277492080953298
69,1732176726.0074234,1.1699333190917969,0.9835463762283325,35.78015899658203,0.005445253779956619
70,1732176726.0204105,1.1792938113212585,0.9835463762283325,35.79557418823242,0.00572852441412412
71,1732176726.033405,1.189821720123291,1.0073944330215454,35.811336517333984,0.006384853765298749
72,1732176726.0454054,1.2188377380371094,1.0073944330215454,35.839290618896484,0.00709893235483452
73,1732176726.0574272,1.2349509000778198,1.0331436395645142,35.850624084472656,0.00819199096189753
74,1732176726.0703726,1.249303162097931,1.0331436395645142,35.860347747802734,0.009168645167590521
75,1732176726.0833597,1.2598572969436646,1.0569509267807007,35.8670768737793,0.01065389998934389
76,1732176726.095406,1.267686128616333,1.0569509267807007,35.877891540527344,0.012045219546691067
77,1732176726.1084044,1.2675307989120483,1.0826514959335327,35.882667541503906,0.013905192544581432
78,1732176726.1204069,1.265942633152008,1.0826514959335327,35.887786865234375,0.0154385195349353
79,1732176726.1333678,1.2630884647369385,1.1074721813201904,35.8930778503418,0.01722341078591622
80,1732176726.14636,1.260517418384552,1.1074721813201904,35.904239654541016,0.018876851407339666
81,1732176726.158372,1.2613770365715027,1.1322121620178223,35.90999221801758,0.020414901501819932
82,1732176726.170413,1.2633601427078247,1.1322121620178223,35.91539764404297,0.02193301414866934
83,1732176726.183406,1.2669188976287842,1.1569926738739014,35.92011642456055,0.023481067974147406
84,1732176726.1963713,1.2757331132888794,1.1569926738739014,35.928688049316406,0.024960764758685715
85,1732176726.2093713,1.278855800628662,1.1818028688430786,35.933170318603516,0.026463198077290792
86,1732176726.2213717,1.2806199789047241,1.1818028688430786,35.93794631958008,0.027796421493538802
87,1732176726.2343905,1.2822074890136719,1.2075358629226685,35.9431266784668,0.02915331859479718
88,1732176726.248371,1.2887412905693054,1.2075358629226685,35.955665588378906,0.030394766978237384
89,1732176726.26136,1.2957890033721924,1.2323312759399414,35.962337493896484,0.031125972868633285
90,1732176726.2743602,1.305495798587799,1.2323312759399414,35.968265533447266,0.031784538359909076
91,1732176726.2863986,1.3272331953048706,1.2590594291687012,35.97953796386719,0.03146664926243021
92,1732176726.2984126,1.3360713124275208,1.2590594291687012,35.985233306884766,0.03148831281511957
93,1732176726.3114128,1.3420220613479614,1.2838741540908813,35.990352630615234,0.03172298389776624
94,1732176726.3244078,1.3455126285552979,1.2838741540908813,35.99604797363281,0.03238593706283638
95,1732176726.337398,1.3504531383514404,1.3086645603179932,36.00807189941406,0.03302547710055413
96,1732176726.3503582,1.3526426553726196,1.3086645603179932,36.01359176635742,0.03377532662672671
97,1732176726.3624203,1.3551669120788574,1.3344172239303589,36.01882553100586,0.03442434811642354
98,1732176726.37537,1.3580109477043152,1.3344172239303589,36.0242919921875,0.03495470183238911
99,1732176726.387416,1.3623104691505432,1.3592534065246582,36.03441619873047,0.03558059183191234
100,1732176726.400402,1.3644665479660034,1.3592534065246582,36.039363861083984,0.036065155095734956
101,1732176726.413358,1.3674868941307068,1.3839877843856812,36.044254302978516,0.03659522503037342
102,1732176726.4253986,1.3748964667320251,1.3839877843856812,36.05483627319336,0.03726532357411762
103,1732176726.4383967,1.3796151876449585,1.4097261428833008,36.060302734375,0.037643736280296866
104,1732176726.45136,1.3843433856964111,1.4097261428833008,36.06616973876953,0.03735279687699195
105,1732176726.46336,1.3898050785064697,1.4345124959945679,36.072269439697266,0.0370852383088158
106,1732176726.4754498,1.407570719718933,1.4345124959945679,36.08417510986328,0.036901410932340006
107,1732176726.4883714,1.4189963340759277,1.4592524766921997,36.09027099609375,0.03686382905989687
108,1732176726.5003958,1.430345892906189,1.4592524766921997,36.09642791748047,0.03694142768993795
109,1732176726.5124235,1.44046950340271,1.4790843725204468,36.102752685546875,0.03705865960015196
110,1732176726.52536,1.4489026069641113,1.4790843725204468,36.10954284667969,0.037186950332164806
111,1732176726.5383599,1.462778091430664,1.5048755407333374,36.12588119506836,0.03612646860144142
112,1732176726.55136,1.4727323651313782,1.5048755407333374,36.13330078125,0.035403782186760935
113,1732176726.56336,1.4857171773910522,1.5335813760757446,36.14048767089844,0.034766120366323976
114,1732176726.5753932,1.5166270732879639,1.5335813760757446,36.154296875,0.0344142103064677
115,1732176726.5874212,1.5322426557540894,1.558357834815979,36.161949157714844,0.034356395948107916
116,1732176726.6003706,1.5457603931427002,1.558357834815979,36.16919708251953,0.03415280406013955
117,1732176726.6123943,1.5567960739135742,1.5822038650512695,36.17552185058594,0.03387365817429867
118,1732176726.6253939,1.5653527975082397,1.5822038650512695,36.181907653808594,0.03357087444724661
119,1732176726.6374092,1.5765546560287476,1.6069755554199219,36.19329833984375,0.03295941591824909
120,1732176726.6503887,1.5790328979492188,1.6069755554199219,36.198822021484375,0.032618609656982
121,1732176726.6624246,1.5795992612838745,1.6317447423934937,36.20497512817383,0.03238836534925614
122,1732176726.6753726,1.5799738764762878,1.6317447423934937,36.21245193481445,0.032272001018598506
123,1732176726.6874087,1.5880064964294434,1.6565362215042114,36.229251861572266,0.032084882924385216
124,1732176726.7003706,1.5974328517913818,1.6565362215042114,36.23747634887695,0.03169723715879978
125,1732176726.7123725,1.6100997924804688,1.681296944618225,36.24530029296875,0.0308452653869849
126,1732176726.7253664,1.625079870223999,1.681296944618225,36.2545051574707,0.02981313910945012
127,1732176726.737401,1.6610698699951172,1.7060632705688477,36.274635314941406,0.028512226724896613
128,1732176726.7504048,1.68125319480896,1.7060632705688477,36.284244537353516,0.027135559541082783
129,1732176726.762423,1.701963484287262,1.7308419942855835,36.29241180419922,0.025666277927544476
130,1732176726.7753725,1.7205910086631775,1.7308419942855835,36.30161666870117,0.024310049665618026
131,1732176726.7883596,1.7430859208106995,1.7556402683258057,36.3191032409668,0.023199566698206737
132,1732176726.8003962,1.7485592365264893,1.7556402683258057,36.328365325927734,0.022183457814425177
133,1732176726.813371,1.7539998888969421,1.7813447713851929,36.336761474609375,0.02138684774810369
134,1732176726.8263595,1.7669857740402222,1.7813447713851929,36.35643768310547,0.020657426137098332
135,1732176726.8383598,1.7754787802696228,1.8061550855636597,36.36713409423828,0.020466278658838863
136,1732176726.850371,1.7846213579177856,1.8061550855636597,36.377777099609375,0.020365140251694735
137,1732176726.8625216,1.7940601110458374,1.8308976888656616,36.38916778564453,0.020085463072996093
138,1732176726.87536,1.8041474223136902,1.8308976888656616,36.401710510253906,0.01985136510831781
139,1732176726.8873713,1.8298389315605164,1.8548434972763062,36.4265022277832,0.01907931946429015
140,1732176726.8994014,1.846036672592163,1.8548434972763062,36.44065475463867,0.01858155453022481
141,1732176726.9123714,1.866072177886963,1.8794708251953125,36.45233154296875,0.017977722854013688
142,1732176726.9254472,1.8893365859985352,1.8794708251953125,36.4644660949707,0.017536420780952675
143,1732176726.9383595,1.934981107711792,1.9042472839355469,36.487247467041016,0.017250791650446566
144,1732176726.9503922,1.954244077205658,1.9042472839355469,36.49789047241211,0.016938398445933145
145,1732176726.963385,1.9706858396530151,1.9300029277801514,36.50720977783203,0.016637146248181835
146,1732176726.9793718,1.9950891137123108,1.9300029277801514,36.5271110534668,0.016338832660401023
147,1732176726.9944031,2.019738495349884,1.954804539680481,36.54862594604492,0.01611280253578796
148,1732176727.0064042,2.035563349723816,1.976586103439331,36.557884216308594,0.01582437910705424
149,1732176727.019407,2.052572548389435,1.976586103439331,36.566978454589844,0.015552238391217143
150,1732176727.0323963,2.067857503890991,1.9974387884140015,36.57646942138672,0.015558725628742472
151,1732176727.0453598,2.0792970657348633,1.9974387884140015,36.586708068847656,0.015740741782029475
152,1732176727.057371,2.0929625630378723,2.023198366165161,36.605865478515625,0.015597643063342576
153,1732176727.0693722,2.0986334085464478,2.023198366165161,36.61540985107422,0.015390908756890302
154,1732176727.082371,2.1050544381141663,2.04794979095459,36.624671936035156,0.01516567012060142
155,1732176727.094406,2.1128876209259033,2.04794979095459,36.63531494140625,0.015044423255817204
156,1732176727.1064181,2.135865330696106,2.072726249694824,36.65475845336914,0.014993033577647308
157,1732176727.1193724,2.1482033729553223,2.072726249694824,36.664363861083984,0.01497153816638574
158,1732176727.1314125,2.159729480743408,2.096558094024658,36.67305374145508,0.014901974172307715
159,1732176727.1443596,2.1698427200317383,2.096558094024658,36.682369232177734,0.014778419431370794
160,1732176727.1563716,2.1844125986099243,2.121328830718994,36.70020294189453,0.01467179025753346
161,1732176727.1683722,2.1904754638671875,2.121328830718994,36.709808349609375,0.014564843894189657
162,1732176727.181371,2.197533130645752,2.1460647583007812,36.71855163574219,0.014494788315426763
163,1732176727.193371,2.206685781478882,2.1460647583007812,36.727928161621094,0.014436044636992922
164,1732176727.2053716,2.228694796562195,2.1708405017852783,36.74737548828125,0.014391898186768571
165,1732176727.2173722,2.2404028177261353,2.1708405017852783,36.758419036865234,0.014375143599598537
166,1732176727.2303722,2.2539327144622803,2.194626569747925,36.7685432434082,0.01436873871647322
167,1732176727.2424066,2.2702817916870117,2.194626569747925,36.778724670410156,0.014367234377381239
168,1732176727.2554061,2.2882497310638428,2.2194032669067383,36.78746795654297,0.014436806460455387
169,1732176727.268384,2.3239716291427612,2.2194032669067383,36.8065071105957,0.014608567404957409
170,1732176727.2813694,2.340890407562256,2.244213342666626,36.813812255859375,0.014872995233427102
171,1732176727.2933724,2.3560872077941895,2.244213342666626,36.8205451965332,0.015176879360578013
172,1732176727.3063724,2.3765732049942017,2.269944190979004,36.83049392700195,0.01554387092080851
173,1732176727.3193753,2.3808523416519165,2.269944190979004,36.835670471191406,0.015952384176735338
174,1732176727.3313906,2.381828188896179,2.2947237491607666,36.84119415283203,0.01656652938087367
175,1732176727.343423,2.3819777965545654,2.2947237491607666,36.84746551513672,0.017229392311807718
176,1732176727.356366,2.3899013996124268,2.3205037117004395,36.860408782958984,0.017873158505710585
177,1732176727.3684056,2.399315595626831,2.3205037117004395,36.866676330566406,0.018581084751623234
178,1732176727.38136,2.4114151000976562,2.3442699909210205,36.87191390991211,0.019310977170053745
179,1732176727.3933713,2.423675537109375,2.3442699909210205,36.87702941894531,0.02000568440632548
180,1732176727.4063716,2.438514471054077,2.3690404891967773,36.8873291015625,0.020741810331432752
181,1732176727.4183822,2.4403635263442993,2.3690404891967773,36.892967224121094,0.021467372898479165
182,1732176727.4313715,2.4417970180511475,2.3938283920288086,36.899295806884766,0.022170797660249347
183,1732176727.443391,2.4451934099197388,2.3938283920288086,36.90665817260742,0.022880208536354786
184,1732176727.4554043,2.4624154567718506,2.418604612350464,36.9193115234375,0.02351839259508379
185,1732176727.4674098,2.4749025106430054,2.418604612350464,36.92517852783203,0.02416825032451565
186,1732176727.4803987,2.487271785736084,2.442422389984131,36.931278228759766,0.024769689019490615
187,1732176727.4924047,2.498398542404175,2.442422389984131,36.93708801269531,0.02524844907310844
188,1732176727.5044055,2.508014678955078,2.467193126678467,36.942378997802734,0.025511131421511533
189,1732176727.5173724,2.523446559906006,2.467193126678467,36.954002380371094,0.02572453590701684
190,1732176727.529404,2.5301276445388794,2.490985155105591,36.95900344848633,0.025874791010951977
191,1732176727.542396,2.5362279415130615,2.490985155105591,36.96389389038086,0.026089267773690205
192,1732176727.5553827,2.540827751159668,2.5157599449157715,36.96849822998047,0.026518021681841357
193,1732176727.5674002,2.5468497276306152,2.5157599449157715,36.978275299072266,0.026972378671708236
194,1732176727.579412,2.5495970249176025,2.54150652885437,36.982704162597656,0.027667742190250037
195,1732176727.5924084,2.5516955852508545,2.54150652885437,36.9875373840332,0.028369925514598143
196,1732176727.6054094,2.5531463623046875,2.5653207302093506,36.9921989440918,0.02926284783697675
197,1732176727.6183727,2.555888295173645,2.5653207302093506,37.00278091430664,0.03017641124382511
198,1732176727.6304033,2.5581445693969727,2.591085433959961,37.008304595947266,0.03110413417746033
199,1732176727.6434014,2.562044620513916,2.591085433959961,37.0145149230957,0.03204780480738943
200,1732176727.6563954,2.576671600341797,2.6158559322357178,37.02722930908203,0.031250066263763296
201,1732176727.6694088,2.5873581171035767,2.6158559322357178,37.03303527832031,0.030971295605559515
202,1732176727.682372,2.598794937133789,2.641615629196167,37.03902053833008,0.030532762307339343
203,1732176727.6944075,2.6096068620681763,2.641615629196167,37.04557800292969,0.030566972217035384
204,1732176727.70736,2.6303948163986206,2.6673598289489746,37.06059265136719,0.030568101864521583
205,1732176727.7194076,2.6440649032592773,2.6673598289489746,37.069393157958984,0.03068721155357201
206,1732176727.7323716,2.6621265411376953,2.692124366760254,37.07664108276367,0.030451273598061556
