,Time,Force,GoalForce,Pos,k
0,1732020350.8892035,0.24102552235126495,0.20000000298023224,34.00403594970703,0.04
1,1732020350.9022255,0.2622905522584915,0.20000000298023224,34.03550338745117,0.04
2,1732020350.9152043,0.2706957384943962,0.2622905671596527,34.044132232666016,0.04
3,1732020350.9282038,0.27432413399219513,0.2622905671596527,34.04942321777344,0.04
4,1732020350.9402237,0.2783932015299797,0.28566238284111023,34.054718017578125,0.04
5,1732020350.9522302,0.2834658846259117,0.28566238284111023,34.060123443603516,0.04
6,1732020350.965229,0.2951081022620201,0.31002557277679443,34.07231903076172,0.04
7,1732020350.9782279,0.30153360217809677,0.31002557277679443,34.07818603515625,0.04
8,1732020350.9912055,0.30798107385635376,0.3343750238418579,34.08405303955078,0.04
9,1732020351.0042043,0.31438224017620087,0.3343750238418579,34.09032440185547,0.04
10,1732020351.016231,0.32863129675388336,0.35967010259628296,34.10361099243164,0.04
11,1732020351.0282328,0.3356272131204605,0.35967010259628296,34.11109161376953,0.04
12,1732020351.041205,0.34219060838222504,0.3840393126010895,34.119720458984375,0.04
13,1732020351.0532396,0.3490004539489746,0.3840393126010895,34.12748718261719,0.04
14,1732020351.0662053,0.36555956304073334,0.4083581566810608,34.142784118652344,0.04
15,1732020351.0782316,0.37440986931324005,0.4083581566810608,34.150146484375,0.04
16,1732020351.0912287,0.3826122134923935,0.4327027499675751,34.15791702270508,0.04
17,1732020351.1042302,0.3902381956577301,0.4327027499675751,34.166141510009766,0.04
18,1732020351.117229,0.40465492010116577,0.45706984400749207,34.180233001708984,0.04
19,1732020351.1292334,0.412178173661232,0.45706984400749207,34.18696212768555,0.04
20,1732020351.1422036,0.41911065578460693,0.48238813877105713,34.1930046081543,0.04
21,1732020351.1552043,0.43267928063869476,0.48238813877105713,34.20692443847656,0.04
22,1732020351.1672232,0.4402497410774231,0.5067076683044434,34.214805603027344,0.04
23,1732020351.1792347,0.4483371526002884,0.5067076683044434,34.22320556640625,0.04
24,1732020351.191239,0.4575207233428955,0.5310710668563843,34.23166275024414,0.04
25,1732020351.2042294,0.46811769902706146,0.5310710668563843,34.239315032958984,0.04
26,1732020351.2172046,0.49154044687747955,0.5544570684432983,34.25634002685547,0.04
27,1732020351.229205,0.5037491321563721,0.5544570684432983,34.265830993652344,0.04
28,1732020351.241237,0.517018735408783,0.5797414779663086,34.27595520019531,0.037465943641960625
29,1732020351.2541924,0.5312060713768005,0.5797414779663086,34.28475570678711,0.03523372672274709
30,1732020351.2662327,0.5580574870109558,0.6031435132026672,34.30132293701172,0.033133449869081386
31,1732020351.2792041,0.5702261626720428,0.6031435132026672,34.30966567993164,0.03117747698729486
32,1732020351.2912407,0.5818237364292145,0.6274836659431458,34.318294525146484,0.02941697799344585
33,1732020351.3041925,0.5936617255210876,0.6274836659431458,34.32789993286133,0.027836516077188185
34,1732020351.316204,0.6197740137577057,0.6518356800079346,34.345848083496094,0.026424457777173102
35,1732020351.3282044,0.6323025226593018,0.6518356800079346,34.3549919128418,0.02515518296760092
36,1732020351.3412042,0.6445015966892242,0.6761443614959717,34.36448669433594,0.024028815737382504
37,1732020351.3532333,0.6570417582988739,0.6761443614959717,34.37518310546875,0.02301936661319369
38,1732020351.3662298,0.6854260861873627,0.7004886865615845,34.39773178100586,0.022083771345315282
39,1732020351.3792229,0.7025822103023529,0.7004886865615845,34.4091796875,0.021204472177295
40,1732020351.3921926,0.7211199104785919,0.7248578667640686,34.420631408691406,0.02034127988791595
41,1732020351.4042137,0.761898934841156,0.7248578667640686,34.44605255126953,0.019486835293854445
42,1732020351.4162364,0.7847850918769836,0.7501397728919983,34.457618713378906,0.018745458838687987
43,1732020351.428239,0.8084751069545746,0.7501397728919983,34.46831512451172,0.018114105471086488
44,1732020351.4412322,0.8316524922847748,0.7735528349876404,34.47947692871094,0.01756269771958469
45,1732020351.454234,0.8538124859333038,0.7735528349876404,34.49109649658203,0.017088525998786797
46,1732020351.4672313,0.8956167995929718,0.7978930473327637,34.510711669921875,0.016586038254078367
47,1732020351.4801924,0.9145082533359528,0.7978930473327637,34.52008819580078,0.01620137455973876
48,1732020351.4921925,0.9324987232685089,0.8232102394104004,34.5294075012207,0.015898877963398568
49,1732020351.5041926,0.9670284986495972,0.8232102394104004,34.54844665527344,0.015648617038108114
50,1732020351.5162406,0.9837378263473511,0.8475167155265808,34.55621337890625,0.015413939525762681
51,1732020351.529242,0.9998231828212738,0.8475167155265808,34.56352233886719,0.015203672449361817
52,1732020351.5421925,1.0144971907138824,0.8709340691566467,34.570709228515625,0.015092439193789544
53,1732020351.5542462,1.0388626456260681,0.8709340691566467,34.58566665649414,0.015037451283721075
54,1732020351.5672317,1.0504208505153656,0.8962051868438721,34.593605041503906,0.015095485591072988
55,1732020351.5802274,1.0621880292892456,0.8962051868438721,34.5999870300293,0.01520400774614139
56,1732020351.5922294,1.0739406943321228,0.9205877184867859,34.60545349121094,0.015523617070640238
57,1732020351.6052053,1.0965005159378052,0.9205877184867859,34.6171875,0.01597497334485511
58,1732020351.6181927,1.1060832738876343,0.9449297189712524,34.62236785888672,0.016877344172345935
59,1732020351.6302042,1.1144540309906006,0.9449297189712524,34.627601623535156,0.017742541883421545
60,1732020351.6432412,1.1213903427124023,0.9702120423316956,34.63249206542969,0.01885462473693425
61,1732020351.6562042,1.132345736026764,0.9702120423316956,34.642555236816406,0.020049957596030246
62,1732020351.669204,1.1382456421852112,0.9946035742759705,34.646873474121094,0.02155949867913104
63,1732020351.681204,1.1450804471969604,0.9946035742759705,34.65129852294922,0.02299478006794134
64,1732020351.6941922,1.1524248719215393,1.0198854207992554,34.655269622802734,0.024636165968484395
65,1732020351.7062445,1.1654800772666931,1.0198854207992554,34.662803649902344,0.026083430652535003
66,1732020351.7192044,1.170958697795868,1.0442181825637817,34.66608428955078,0.02770846315149907
67,1732020351.7312276,1.1752196550369263,1.0442181825637817,34.669189453125,0.02908025997511545
68,1732020351.7441914,1.178629219532013,1.0685744285583496,34.672237396240234,0.030601695039558403
69,1732020351.7562048,1.1845370531082153,1.0685744285583496,34.67897033691406,0.03188551316442012
70,1732020351.7682264,1.186798334121704,1.0929059982299805,34.682308197021484,0.03320592358513402
71,1732020351.781191,1.1892268061637878,1.0929059982299805,34.68575668334961,0.03440226918283457
72,1732020351.793204,1.1927326917648315,1.116310477256775,34.68898010253906,0.035564258076161336
73,1732020351.8052053,1.2013074159622192,1.116310477256775,34.696571350097656,0.03669707905716615
74,1732020351.818204,1.206419289112091,1.1406331062316895,34.700599670410156,0.03756237974584326
75,1732020351.8312042,1.2128260731697083,1.1406331062316895,34.70433807373047,0.03843273960787259
76,1732020351.8432305,1.220434844493866,1.1649771928787231,34.70756149291992,0.03923586340163532
77,1732020351.8552318,1.2360966801643372,1.1649771928787231,34.71365737915039,0.04000950714720234
78,1732020351.8682275,1.2419394850730896,1.189347267150879,34.716590881347656,0.04071850652193676
79,1732020351.881205,1.245966613292694,1.189347267150879,34.719581604003906,0.04113112643088982
80,1732020351.8942041,1.2493035793304443,1.213688611984253,34.7224006652832,0.041779080448085835
81,1732020351.9072027,1.2567707300186157,1.213688611984253,34.72947692871094,0.04228006586510072
82,1732020351.9201925,1.2615196108818054,1.2389839887619019,34.73310089111328,0.042727332503302067
83,1732020351.932204,1.2674164772033691,1.2389839887619019,34.737125396728516,0.043183157167467325
84,1732020351.9442368,1.2822445631027222,1.264290690422058,34.74650573730469,0.040755576220124524
85,1732020351.9571917,1.2909293174743652,1.264290690422058,34.75144958496094,0.03942323762354514
86,1732020351.9691927,1.3009461760520935,1.287704348564148,34.75611114501953,0.03819164947280819
87,1732020351.9812284,1.311956763267517,1.287704348564148,34.760826110839844,0.03746411821791114
88,1732020351.9932318,1.3233583569526672,1.3120057582855225,34.76537322998047,0.037378681047695116
89,1732020352.006204,1.346885859966278,1.3120057582855225,34.775611877441406,0.0372358547990953
90,1732020352.0182273,1.3588831424713135,1.3354142904281616,34.78021240234375,0.037084660292753736
91,1732020352.0302327,1.3704646825790405,1.3354142904281616,34.785274505615234,0.03690487007298096
92,1732020352.0432289,1.381872296333313,1.359754204750061,34.79073715209961,0.03677136847375057
93,1732020352.056204,1.4070535898208618,1.359754204750061,34.801151275634766,0.036886682575925187
94,1732020352.0682378,1.419909119606018,1.3840998411178589,34.805694580078125,0.037276984422788616
95,1732020352.081204,1.4323434233665466,1.3840998411178589,34.81024169921875,0.037816595959114074
96,1732020352.094193,1.4441118836402893,1.4084528684616089,34.814151763916016,0.03826588974366818
97,1732020352.1062298,1.4632564187049866,1.4084528684616089,34.8210563659668,0.03844557295116992
98,1732020352.1192043,1.4703243970870972,1.4337272644042969,34.82410430908203,0.038900412305055955
99,1732020352.1322043,1.4750506281852722,1.4337272644042969,34.827213287353516,0.03917201989936134
100,1732020352.1452317,1.4814427495002747,1.4580825567245483,34.83411407470703,0.03864668541294903
101,1732020352.1582034,1.4867773056030273,1.4580825567245483,34.83790969848633,0.03814877331086311
102,1732020352.1711924,1.4934641122817993,1.4834274053573608,34.84170913696289,0.03755153240109962
103,1732020352.1832042,1.5006126761436462,1.4834274053573608,34.84579086303711,0.03709766474079026
104,1732020352.1952415,1.5175739526748657,1.5087071657180786,34.85413360595703,0.0366181354824686
105,1732020352.2082038,1.5272613763809204,1.5087071657180786,34.85856246948242,0.03618426697885847
106,1732020352.2202344,1.5379565358161926,1.5321253538131714,34.86247253417969,0.03564753396751752
107,1732020352.233233,1.548960268497467,1.5321253538131714,34.866268157958984,0.035118482568343906
108,1732020352.2462292,1.5679036378860474,1.5564627647399902,34.8734016418457,0.03469279387606421
109,1732020352.2591925,1.5758711099624634,1.5564627647399902,34.8774299621582,0.03441697154056941
110,1732020352.2712302,1.5834162831306458,1.5817756652832031,34.881744384765625,0.03431939894210024
111,1732020352.2842035,1.5916496515274048,1.5817756652832031,34.886749267578125,0.03432320860848477
112,1732020352.2971928,1.6133289337158203,1.6061210632324219,34.8974494934082,0.03403257742070243
113,1732020352.3092053,1.6271097660064697,1.6061210632324219,34.90354537963867,0.03410922137984412
114,1732020352.3221927,1.6424917578697205,1.631402611732483,34.90900802612305,0.034091200513441354
115,1732020352.3341973,1.6744019985198975,1.631402611732483,34.91850280761719,0.034143012985109376
116,1732020352.3462038,1.6882882118225098,1.6557468175888062,34.92333221435547,0.034053026638495104
117,1732020352.3582342,1.6996062994003296,1.6557468175888062,34.928279876708984,0.033963547872364976
118,1732020352.3702357,1.7094957828521729,1.6791281700134277,34.93253707885742,0.03384237779098194
119,1732020352.383204,1.719384491443634,1.6791281700134277,34.93714141845703,0.03385688626394368
120,1732020352.395234,1.738899290561676,1.7025295495986938,34.946632385253906,0.033456163043907555
121,1732020352.4082327,1.7485806941986084,1.7025295495986938,34.95169448852539,0.033314958007751055
122,1732020352.4212055,1.7593508958816528,1.726872444152832,34.95566177368164,0.033168246038214694
123,1732020352.4342058,1.7699781656265259,1.726872444152832,34.95980453491211,0.033193231467118556
124,1732020352.446222,1.7871009707450867,1.7521625757217407,34.96745300292969,0.03315707334313753
125,1732020352.4582329,1.7942017316818237,1.7521625757217407,34.971309661865234,0.03317419883698788
126,1732020352.4702342,1.800815463066101,1.7765229940414429,34.974586486816406,0.03313276645920187
127,1732020352.483229,1.8076839447021484,1.7765229940414429,34.97821044921875,0.0330418167476193
128,1732020352.4952297,1.8206338286399841,1.7999053001403809,34.98482894897461,0.03298843998888158
129,1732020352.5082278,1.825908362865448,1.7999053001403809,34.9883918762207,0.03292161761980376
130,1732020352.5211926,1.831304669380188,1.8242453336715698,34.99207305908203,0.033035133012483606
131,1732020352.5341988,1.837227463722229,1.8242453336715698,34.996158599853516,0.03325597939939805
132,1732020352.5462008,1.8528258800506592,1.84952712059021,35.00415802001953,0.03363826682911671
133,1732020352.5582294,1.8629156947135925,1.84952712059021,35.00870132446289,0.03411781208884439
134,1732020352.5712306,1.8737475872039795,1.8738794326782227,35.01335906982422,0.03457239307914723
135,1732020352.583239,1.8973448872566223,1.8738794326782227,35.02256393432617,0.034933226149867914
136,1732020352.5952404,1.9105243682861328,1.8982527256011963,35.02693557739258,0.0349008025302806
137,1732020352.608223,1.923547625541687,1.8982527256011963,35.03090286254883,0.03477487362095581
138,1732020352.6202333,1.9356239438056946,1.9216326475143433,35.035221099853516,0.03482412007453025
139,1732020352.6322508,1.946628451347351,1.9216326475143433,35.03964614868164,0.034966529148834774
140,1732020352.6452403,1.9657763242721558,1.9459701776504517,35.04856491088867,0.0347111950707595
141,1732020352.6582332,1.975306510925293,1.9459701776504517,35.05379867553711,0.0345423040144587
142,1732020352.671204,1.9868935942649841,1.9703211784362793,35.05984115600586,0.034201270030702155
143,1732020352.6842043,2.00092875957489,1.9703211784362793,35.0660514831543,0.034042737501947584
144,1732020352.697204,2.03503555059433,1.9956039190292358,35.0750846862793,0.034028341577728244
145,1732020352.7092345,2.05152291059494,1.9956039190292358,35.07950973510742,0.034069178065311595
146,1732020352.722234,2.065058648586273,2.0209221839904785,35.08342361450195,0.034147649312601995
147,1732020352.7352293,2.083179771900177,2.0209221839904785,35.09055709838867,0.034163691599297386
148,1732020352.7472293,2.0891531705856323,2.045295476913452,35.09383773803711,0.03428722217601048
149,1732020352.7592494,2.0935890078544617,2.045295476913452,35.09751892089844,0.034284156217469344
150,1732020352.7721925,2.0981277227401733,2.0696351528167725,35.101139068603516,0.03442503883328459
151,1732020352.7842038,2.111786127090454,2.0696351528167725,35.10919189453125,0.03469466081756134
152,1732020352.7972052,2.1200602054595947,2.0939435958862305,35.11293411254883,0.03507402869908016
153,1732020352.8092325,2.1287349462509155,2.0939435958862305,35.11650085449219,0.03555180578989984
154,1732020352.8222299,2.1374486684799194,2.118300199508667,35.11977767944336,0.03616386979427815
155,1732020352.8352036,2.1530572175979614,2.118300199508667,35.126739501953125,0.0367885395551343
156,1732020352.8482053,2.160152316093445,2.1426684856414795,35.12990188598633,0.03752705064397627
157,1732020352.8612041,2.166768193244934,2.1426684856414795,35.132781982421875,0.038151254716350794
158,1732020352.8732414,2.172136425971985,2.1679625511169434,35.135311126708984,0.039032059949190165
159,1732020352.8862047,2.1796191930770874,2.1679625511169434,35.14100646972656,0.03974495913823016
160,1732020352.8992302,2.183439612388611,2.1923420429229736,35.14399719238281,0.040679973389860104
161,1732020352.9122276,2.187406539916992,2.1923420429229736,35.147335052490234,0.04148177573933254
162,1732020352.9252038,2.1992796659469604,2.217649221420288,35.15458297729492,0.040220920546538086
163,1732020352.938205,2.207504391670227,2.217649221420288,35.158321380615234,0.039640614512878466
164,1732020352.9502378,2.2169944047927856,2.242941379547119,35.16240310668945,0.039131234174952935
165,1732020352.9631925,2.2276852130889893,2.242941379547119,35.166893005371094,0.03902794167636576
166,1732020352.9762037,2.2516660690307617,2.2673189640045166,35.175289154052734,0.03870420153652498
167,1732020352.9891927,2.2647783756256104,2.2673189640045166,35.17891311645508,0.03834507871313275
168,1732020353.001205,2.2781864404678345,2.2926037311553955,35.182193756103516,0.03792931407967253
169,1732020353.0141923,2.2898430824279785,2.2926037311553955,35.185646057128906,0.037635190221181905
170,1732020353.02624,2.3056715726852417,2.3169491291046143,35.19346618652344,0.03754929715321487
171,1732020353.0392034,2.3129498958587646,2.3169491291046143,35.19812774658203,0.03760311355226659
172,1732020353.0512042,2.321844220161438,2.341327667236328,35.20278549194336,0.03757748693257651
173,1732020353.0632367,2.333038091659546,2.341327667236328,35.20808029174805,0.03770037575092984
174,1732020353.0752397,2.364580988883972,2.3656370639801025,35.21958541870117,0.037239072473589235
175,1732020353.0882044,2.3836746215820312,2.3656370639801025,35.2242431640625,0.03690717913366287
176,1732020353.101204,2.4028748273849487,2.3890421390533447,35.22798156738281,0.03643859704724189
177,1732020353.1132288,2.4192603826522827,2.3890421390533447,35.23195266723633,0.0361607725655249
178,1732020353.125229,2.4394919872283936,2.41432523727417,35.23937225341797,0.0362089489610682
179,1732020353.1381927,2.446238875389099,2.41432523727417,35.24299621582031,0.036257000465246145
180,1732020353.1502426,2.4526331424713135,2.43772029876709,35.24633026123047,0.03634021881137976
181,1732020353.1628711,2.4590821266174316,2.43772029876709,35.24995803833008,0.03639929252488633
182,1732020353.1752415,2.4720712900161743,2.4620778560638428,35.257205963134766,0.036585974388926204
183,1732020353.1882043,2.4789503812789917,2.4620778560638428,35.26123046875,0.036738326946147364
184,1732020353.201205,2.4864953756332397,2.4864208698272705,35.26514434814453,0.03710084517232902
185,1732020353.2142038,2.495266556739807,2.4864208698272705,35.26893997192383,0.037608831236651485
186,1732020353.227204,2.514063000679016,2.5117034912109375,35.27607345581055,0.03825498777022148
187,1732020353.2392378,2.5222878456115723,2.5117034912109375,35.279640197753906,0.03881978756836223
188,1732020353.252227,2.53019380569458,2.537020683288574,35.28297424316406,0.039337062612037364
189,1732020353.265223,2.5444869995117188,2.537020683288574,35.28993606567383,0.039659615255767555
190,1732020353.2772288,2.551179885864258,2.561387300491333,35.29338836669922,0.03994342653218608
191,1732020353.290205,2.5582895278930664,2.561387300491333,35.296897888183594,0.039921842231723965
192,1732020353.3022296,2.566030502319336,2.585733413696289,35.30034637451172,0.04025042106006143
193,1732020353.3142314,2.581589698791504,2.585733413696289,35.3081169128418,0.040639459037425496
194,1732020353.3271925,2.5900707244873047,2.6100783348083496,35.312137603759766,0.041187606925048574
195,1732020353.3391929,2.599694848060608,2.6100783348083496,35.316341400146484,0.04189993195916248
196,1732020353.3521597,2.6102547645568848,2.6343865394592285,35.32071304321289,0.04263058754669159
197,1732020353.3651192,2.634285807609558,2.6343865394592285,35.33014678955078,0.043441776137350764
198,1732020353.3771205,2.6476614475250244,2.658698797225952,35.334228515625,0.04419978666376957
199,1732020353.3891323,2.661559820175171,2.658698797225952,35.33797073364258,0.044827403870867685
200,1732020353.4011536,2.674931287765503,2.683004856109619,35.34148025512695,0.045222985146326125
201,1732020353.414165,2.686406373977661,2.683004856109619,35.34516143798828,0.0454385696928641
202,1732020353.4261672,2.702241063117981,2.7064075469970703,35.352294921875,0.0448347231669075
203,1732020353.4391205,2.7088167667388916,2.7064075469970703,35.35591506958008,0.044138733007566336
204,1732020353.4511206,2.7156935930252075,2.7307651042938232,35.35942840576172,0.04327694673066396
205,1732020353.4631321,2.723351001739502,2.7307651042938232,35.36351013183594,0.04232813096396677
206,1732020353.4761205,2.742632269859314,2.755064010620117,35.37282943725586,0.04122017630653875
