,Time,Force,GoalForce,Pos,k
0,1732719089.8258526,0.20319584012031555,0.20000000298023224,34.5644416809082,0.04
1,1732719089.8378527,0.1978345513343811,0.20000000298023224,34.57939529418945,0.04
2,1732719089.8498652,0.19904140383005142,0.20000000298023224,34.58341979980469,0.04
3,1732719089.8618982,0.19900298118591309,0.20000000298023224,34.585147857666016,0.04
4,1732719089.8748639,0.19898977875709534,0.19904141128063202,34.587162017822266,0.04
5,1732719089.8868873,0.1985149383544922,0.19904141128063202,34.5890007019043,0.04
6,1732719089.8998528,0.19837359338998795,0.22376364469528198,34.59101486206055,0.04
7,1732719089.9119172,0.19932375848293304,0.22376364469528198,34.596195220947266,0.04
8,1732719089.9249053,0.2002461701631546,0.24847620725631714,34.599185943603516,0.04
9,1732719089.9378529,0.20188431441783905,0.24847620725631714,34.60234832763672,0.04
10,1732719089.9498847,0.20485225319862366,0.2732517123222351,34.60896301269531,0.04
11,1732719089.9628873,0.20656517893075943,0.2732517123222351,34.612701416015625,0.04
12,1732719089.9758644,0.20780456811189651,0.29795485734939575,34.61701583862305,0.04
13,1732719089.9879127,0.2087576687335968,0.29795485734939575,34.621734619140625,0.04
14,1732719090.0009048,0.21202150732278824,0.3236473500728607,34.631168365478516,0.04
15,1732719090.0138633,0.2142062559723854,0.3236473500728607,34.63623046875,0.04
16,1732719090.0258644,0.21692118793725967,0.34841084480285645,34.64192581176758,0.04
17,1732719090.0379126,0.22008030116558075,0.34841084480285645,34.64796447753906,0.04
18,1732719090.050865,0.22696246206760406,0.3730944097042084,34.65998840332031,0.04
19,1732719090.0638952,0.23072446137666702,0.3730944097042084,34.66643142700195,0.04
20,1732719090.0768876,0.23404445499181747,0.39781853556632996,34.67298889160156,0.04
21,1732719090.089866,0.23699770867824554,0.39781853556632996,34.679603576660156,0.04
22,1732719090.10192,0.24451790750026703,0.4235534369945526,34.693580627441406,0.04
23,1732719090.1148632,0.24864178895950317,0.4235534369945526,34.70008087158203,0.04
24,1732719090.1278658,0.25257132947444916,0.44830891489982605,34.70698165893555,0.04
25,1732719090.1398845,0.25962184369564056,0.44830891489982605,34.72136688232422,0.04
26,1732719090.1528635,0.26344458758831024,0.47396790981292725,34.72878646850586,0.04
27,1732719090.1649058,0.26754307746887207,0.47396790981292725,34.73638153076172,0.04
28,1732719090.1769125,0.2713289111852646,0.498689204454422,34.74391555786133,0.04
29,1732719090.189886,0.2752918303012848,0.498689204454422,34.752601623535156,0.04
30,1732719090.2028813,0.2840753346681595,0.5224723219871521,34.76934051513672,0.04
31,1732719090.2158623,0.2895434647798538,0.5224723219871521,34.77894592285156,0.04
32,1732719090.2278988,0.29560686647892,0.5481539368629456,34.788726806640625,0.037720202714204794
33,1732719090.2408643,0.3071073591709137,0.5481539368629456,34.808746337890625,0.03576697850376368
34,1732719090.2538526,0.3132110983133316,0.572894811630249,34.81892776489258,0.03407046186164022
35,1732719090.2659152,0.320138156414032,0.572894811630249,34.83002853393555,0.032610763681545855
36,1732719090.2788637,0.32771529257297516,0.5985615849494934,34.84101867675781,0.031264963922752444
37,1732719090.2908645,0.3448560982942581,0.5985615849494934,34.866615295410156,0.029981390806603586
38,1732719090.3038528,0.3539518266916275,0.6232960820198059,34.881168365478516,0.028712388245077273
39,1732719090.315906,0.3636168986558914,0.6232960820198059,34.89606857299805,0.027564027452002173
40,1732719090.3279428,0.3734999895095825,0.6480088829994202,34.90993118286133,0.026424918139156886
41,1732719090.3408628,0.3933650553226471,0.6480088829994202,34.942832946777344,0.02537785323486673
42,1732719090.3539057,0.40460628271102905,0.6718325018882751,34.95928955078125,0.024282435588025574
43,1732719090.3668525,0.41673654317855835,0.6718325018882751,34.97539520263672,0.02317303038342314
44,1732719090.3788643,0.4290931522846222,0.6975082159042358,34.99178695678711,0.022032374162556382
45,1732719090.390868,0.45384182035923004,0.6975082159042358,35.029579162597656,0.020908731369598196
46,1732719090.4039042,0.4674924463033676,0.7221909165382385,35.049827575683594,0.019748510161867874
47,1732719090.4168637,0.48320910334587097,0.7221909165382385,35.07122802734375,0.018613818278757754
48,1732719090.429853,0.4993974566459656,0.7469539046287537,35.091190338134766,0.01749538133965256
49,1732719090.44187,0.5334658026695251,0.7469539046287537,35.13640213012695,0.01645291098774662
50,1732719090.4539042,0.5510640442371368,0.7726157307624817,35.16194534301758,0.015459126502911957
51,1732719090.466864,0.5698063969612122,0.7726157307624817,35.18800354003906,0.014538450185037296
52,1732719090.479853,0.5908675193786621,0.7964009642601013,35.21400451660156,0.013668680207648852
53,1732719090.4919019,0.6394542455673218,0.7964009642601013,35.26715850830078,0.012842425383674185
54,1732719090.5048716,0.665270984172821,0.8220628499984741,35.29436492919922,0.012059302423563971
55,1732719090.5169034,0.6917321383953094,0.8220628499984741,35.32358932495117,0.011331812098995484
56,1732719090.5298636,0.7175358831882477,0.8468047976493835,35.35200500488281,0.010664306751601968
57,1732719090.5428529,0.7695313096046448,0.8468047976493835,35.41073989868164,0.010046169594716794
58,1732719090.5548654,0.7966861724853516,0.871520459651947,35.44111251831055,0.009471742173992187
59,1732719090.5698998,0.8251659870147705,0.871520459651947,35.472347259521484,0.008938983824592165
60,1732719090.582892,0.8853002190589905,0.8962457776069641,35.53125,0.008442705512858629
61,1732719090.595864,0.9156935513019562,0.8962457776069641,35.55800247192383,0.007944897972219169
62,1732719090.6078975,0.9446007907390594,0.9219585657119751,35.58457565307617,0.007463893798334581
63,1732719090.6208653,0.9967343509197235,0.9219585657119751,35.63801574707031,0.006996058297389611
64,1732719090.6338935,1.0202369689941406,0.9486914873123169,35.664363861083984,0.0066680594648649075
65,1732719090.6458962,1.0432074666023254,0.9486914873123169,35.68949890136719,0.0063639744409453676
66,1732719090.6588528,1.06669282913208,0.9744000434875488,35.71153259277344,0.006280862141120298
67,1732719090.6708643,1.1131437420845032,0.9744000434875488,35.758758544921875,0.006111024166018841
68,1732719090.6828647,1.135243833065033,0.9990833401679993,35.77952575683594,0.006154600308347712
69,1732719090.6948647,1.1565021276474,0.9990833401679993,35.79810333251953,0.0061251860903283675
70,1732719090.706898,1.1748735308647156,1.0228296518325806,35.812950134277344,0.006299006786636774
71,1732719090.7198987,1.190159797668457,1.0228296518325806,35.829917907714844,0.00644720809797251
72,1732719090.7328646,1.2140345573425293,1.0465972423553467,35.8570671081543,0.006567268990485106
73,1732719090.7448676,1.2227237224578857,1.0465972423553467,35.87006759643555,0.0066600779035016
74,1732719090.7569041,1.2307696342468262,1.0722767114639282,35.88168716430664,0.006828605641125808
75,1732719090.7698636,1.2383044958114624,1.0722767114639282,35.89440155029297,0.0070069658838503085
76,1732719090.7828531,1.2535392045974731,1.0960503816604614,35.91787338256836,0.00730217061559491
77,1732719090.7949219,1.2622288465499878,1.0960503816604614,35.92926025390625,0.007649874218137258
78,1732719090.8079062,1.2710190415382385,1.1217124462127686,35.939212799072266,0.00810933737709927
79,1732719090.8208876,1.289099097251892,1.1217124462127686,35.96147537231445,0.008605028536213703
80,1732719090.8328974,1.2978229522705078,1.1464885473251343,35.971946716308594,0.009498964932227075
81,1732719090.8449106,1.3033974766731262,1.1464885473251343,35.98126220703125,0.010389338377115672
82,1732719090.8578632,1.3115323185920715,1.171203374862671,35.9901237487793,0.011649120436308572
83,1732719090.8699086,1.3255071640014648,1.171203374862671,36.0070915222168,0.012859217862365654
84,1732719090.8828645,1.331499695777893,1.1958930492401123,36.0145149230957,0.014435692353616367
85,1732719090.894865,1.3365187644958496,1.1958930492401123,36.020896911621094,0.015989503799590656
86,1732719090.9069052,1.3399435877799988,1.2206178903579712,36.02659225463867,0.017855865393918622
87,1732719090.919859,1.3421041369438171,1.2206178903579712,36.03274917602539,0.019459262610830544
88,1732719090.9318645,1.3457099795341492,1.2443927526474,36.0440788269043,0.020440516915641138
89,1732719090.944864,1.3476839065551758,1.2443927526474,36.04931640625,0.02137829877888135
90,1732719090.9568653,1.349858582019806,1.2690761089324951,36.054664611816406,0.02225472887267147
91,1732719090.9698567,1.351759433746338,1.2690761089324951,36.059898376464844,0.023199491067911457
92,1732719090.9828527,1.354516327381134,1.2938004732131958,36.069278717041016,0.02433951969222898
93,1732719090.9948647,1.3558090329170227,1.2938004732131958,36.0741081237793,0.02543991491445906
94,1732719091.0068648,1.357964277267456,1.31950044631958,36.07963180541992,0.026605342867216532
95,1732719091.0188653,1.3605622053146362,1.31950044631958,36.085784912109375,0.027671201937414167
96,1732719091.0318646,1.367554247379303,1.3432470560073853,36.09855651855469,0.02813746459455814
97,1732719091.0448644,1.373477280139923,1.3432470560073853,36.10517120361328,0.028465819080217416
98,1732719091.0568647,1.3806850910186768,1.3679704666137695,36.11115646362305,0.028628668422589064
99,1732719091.068906,1.3886817693710327,1.3679704666137695,36.11748123168945,0.02887010312237384
100,1732719091.0819006,1.4042251110076904,1.392694115638733,36.131343841552734,0.029187052945715566
101,1732719091.0939128,1.4113292694091797,1.392694115638733,36.13813400268555,0.02959115609564398
102,1732719091.1069002,1.418422520160675,1.4174531698226929,36.144920349121094,0.029982674613934883
103,1732719091.1198635,1.4255957007408142,1.4174531698226929,36.15170669555664,0.03028488806963753
104,1732719091.131864,1.4403472542762756,1.442176342010498,36.16373062133789,0.030661727357633037
105,1732719091.1439202,1.4469899535179138,1.442176342010498,36.169830322265625,0.03099567699616592
106,1732719091.156905,1.4526655673980713,1.4668641090393066,36.17575454711914,0.03140590272711612
107,1732719091.168906,1.4580712914466858,1.4668641090393066,36.18173599243164,0.03190468675524202
108,1732719091.1818528,1.4686335325241089,1.4916281700134277,36.19416046142578,0.03249357388881034
109,1732719091.193867,1.4738348126411438,1.4916281700134277,36.2000846862793,0.033143215222363354
110,1732719091.2068632,1.4789576530456543,1.516300082206726,36.206241607666016,0.033825706624869716
111,1732719091.2188642,1.4838555455207825,1.516300082206726,36.213260650634766,0.034421292260781715
112,1732719091.230898,1.4931591749191284,1.5410339832305908,36.226661682128906,0.03495070321753244
113,1732719091.242912,1.4985761046409607,1.5410339832305908,36.23385238647461,0.035412634015631266
114,1732719091.2559063,1.5046550035476685,1.564802885055542,36.2411003112793,0.03575458602656566
115,1732719091.268859,1.5121617913246155,1.564802885055542,36.24817657470703,0.0359966544200448
116,1732719091.2808645,1.5319982171058655,1.5895347595214844,36.2633056640625,0.036074976285350425
117,1732719091.2938526,1.5428499579429626,1.5895347595214844,36.27095413208008,0.036060957753704874
118,1732719091.3058527,1.553542971611023,1.614216923713684,36.278316497802734,0.0359986918962421
119,1732719091.3178632,1.564604103565216,1.614216923713684,36.28596878051758,0.03585131968227821
120,1732719091.3308654,1.5888152718544006,1.6389288902282715,36.299835205078125,0.03583877314777193
121,1732719091.3429008,1.6005593538284302,1.6389288902282715,36.30662155151367,0.03572804246530847
122,1732719091.3558955,1.6114785075187683,1.6636648178100586,36.31289291381836,0.03567532909678742
123,1732719091.3688529,1.6213302612304688,1.6636648178100586,36.31916427612305,0.03556554731220595
124,1732719091.3818526,1.6368242502212524,1.6884182691574097,36.331356048583984,0.0356863775088542
125,1732719091.3938649,1.6439231634140015,1.6884182691574097,36.33687973022461,0.03566193251915157
126,1732719091.4068632,1.6506553292274475,1.7140883207321167,36.34251403808594,0.035899132884508786
127,1732719091.4189043,1.6568042039871216,1.7140883207321167,36.3491325378418,0.0361961066546736
128,1732719091.4319003,1.6678935289382935,1.738822340965271,36.36328125,0.03650509624088089
129,1732719091.4448638,1.6747853755950928,1.738822340965271,36.37104797363281,0.03678917750779641
130,1732719091.456867,1.6834625601768494,1.7635825872421265,36.378353118896484,0.03686886942443716
131,1732719091.4698594,1.6932941675186157,1.7635825872421265,36.38542938232422,0.03684409744492889
132,1732719091.481906,1.7109556794166565,1.7882732152938843,36.40159225463867,0.03662981535749185
133,1732719091.4939134,1.717303991317749,1.7882732152938843,36.409934997558594,0.03630161199650062
134,1732719091.5069046,1.7214725613594055,1.813035249710083,36.418392181396484,0.035798936310537696
135,1732719091.519864,1.7240999341011047,1.813035249710083,36.42673110961914,0.03522513010930542
136,1732719091.5328653,1.7306348085403442,1.8377575874328613,36.4443359375,0.034601681967063466
137,1732719091.5449197,1.7352071404457092,1.8377575874328613,36.453365325927734,0.03396758995755052
138,1732719091.5578642,1.7403319478034973,1.8634310960769653,36.46245574951172,0.03340008947822632
139,1732719091.569892,1.7522448897361755,1.8634310960769653,36.48120880126953,0.032828994559405876
140,1732719091.5828528,1.7616870403289795,1.8881535530090332,36.49150466918945,0.032537634529613224
141,1732719091.5948644,1.772569179534912,1.8881535530090332,36.501861572265625,0.032111830211826654
142,1732719091.6078627,1.7843636274337769,1.9128658771514893,36.512325286865234,0.031498564248217786
143,1732719091.6208591,1.8087234497070312,1.9128658771514893,36.53401565551758,0.03103863265955476
144,1732719091.6328979,1.8207038044929504,1.9375991821289062,36.54517364501953,0.030492434316969172
145,1732719091.6449242,1.8326442241668701,1.9375991821289062,36.5565071105957,0.02997318081327938
146,1732719091.6578634,1.8438897728919983,1.962357521057129,36.56708908081055,0.029657043939250675
147,1732719091.6698976,1.8648819327354431,1.962357521057129,36.58940887451172,0.029523673475162358
148,1732719091.6818998,1.8755682706832886,1.9870469570159912,36.60097122192383,0.029489063571729812
149,1732719091.6949015,1.887143313884735,1.9870469570159912,36.61155700683594,0.029536463149641652
150,1732719091.7078638,1.8994395732879639,2.010817527770996,36.622314453125,0.02962851658009413
151,1732719091.7198641,1.923134684562683,2.010817527770996,36.6451530456543,0.029732263918604757
152,1732719091.7318647,1.9347330331802368,2.036494493484497,36.65584945678711,0.029817708174186622
153,1732719091.7439206,1.9470542073249817,2.036494493484497,36.667701721191406,0.029880953511414832
154,1732719091.756865,1.960372507572174,2.060230016708374,36.67955017089844,0.02998497520907334
155,1732719091.76891,1.9742118120193481,2.060230016708374,36.69145965576172,0.030196390092583996
156,1732719091.7819004,2.0025634169578552,2.084954023361206,36.71355056762695,0.029901798701476304
157,1732719091.794853,2.015562891960144,2.084954023361206,36.72465133666992,0.029574070396594328
158,1732719091.8069093,2.0282074213027954,2.1097123622894287,36.735694885253906,0.02905647350630652
159,1732719091.8198645,2.0418044328689575,2.1097123622894287,36.74656677246094,0.028382564685775262
160,1732719091.8318646,2.0707353949546814,2.1344449520111084,36.769691467285156,0.027900673167735417
161,1732719091.8438647,2.0846056938171387,2.1344449520111084,36.781429290771484,0.027314009823051166
162,1732719091.8559413,2.098044514656067,2.1591241359710693,36.7921257019043,0.026514616846424702
163,1732719091.8689046,2.110905408859253,2.1591241359710693,36.80414962768555,0.025562462722702947
164,1732719091.8809052,2.1373074054718018,2.182934522628784,36.82761764526367,0.024653559750715606
165,1732719091.8938527,2.151967763900757,2.182934522628784,36.83877944946289,0.02380376848703597
166,1732719091.9058824,2.167269468307495,2.2076222896575928,36.8501091003418,0.023085140822463997
167,1732719091.9198663,2.180903911590576,2.2076222896575928,36.86161422729492,0.022407233242512137
168,1732719091.931905,2.2047840356826782,2.232323408126831,36.88433837890625,0.02186426738588845
169,1732719091.944885,2.216578960418701,2.232323408126831,36.896705627441406,0.02132977220137866
170,1732719091.9568865,2.229732394218445,2.2580583095550537,36.90907287597656,0.0208391886745687
171,1732719091.9699097,2.261115074157715,2.2580583095550537,36.93536376953125,0.02031867412133178
172,1732719091.982859,2.2779736518859863,2.282763719558716,36.94916915893555,0.020000306322304852
173,1732719091.9948642,2.294066548347473,2.282763719558716,36.96216583251953,0.019744003985042974
174,1732719092.0068836,2.308417797088623,2.3084487915039062,36.97378921508789,0.019573713994367962
175,1732719092.0208628,2.319316864013672,2.3084487915039062,36.9873046875,0.019546420155177158
176,1732719092.0338588,2.3330453634262085,2.332207679748535,37.01261520385742,0.019063911537715472
177,1732719092.045884,2.3387088775634766,2.332207679748535,37.02602005004883,0.01862833316658915
178,1732719092.0588644,2.3460090160369873,2.358884811401367,37.040287017822266,0.018026734319642013
179,1732719092.0709004,2.370202898979187,2.358884811401367,37.07077407836914,0.01746828875525131
180,1732719092.0838642,2.386826515197754,2.3836138248443604,37.086822509765625,0.017193316488713035
181,1732719092.096864,2.4053279161453247,2.3836138248443604,37.10195541381836,0.017050270835384736
182,1732719092.1089244,2.424240469932556,2.408337354660034,37.11518096923828,0.016985613122425983
183,1732719092.1219049,2.457168221473694,2.408337354660034,37.142276763916016,0.016854267655172207
184,1732719092.133909,2.4697195291519165,2.4331202507019043,37.154296875,0.01697292279901349
185,1732719092.146899,2.479899048805237,2.4331202507019043,37.1671257019043,0.01702360937031129
186,1732719092.1598668,2.488219141960144,2.4578285217285156,37.17966842651367,0.017289949803340605
187,1732719092.1719058,2.5033081769943237,2.4578285217285156,37.20693588256836,0.017499954080988322
188,1732719092.1848655,2.51326322555542,2.48349928855896,37.22119903564453,0.01781848981357457
189,1732719092.1978526,2.5257508754730225,2.48349928855896,37.23529052734375,0.01819241585025348
190,1732719092.2098641,2.555271863937378,2.5082216262817383,37.261409759521484,0.018310820125244476
191,1732719092.2219057,2.5692059993743896,2.5082216262817383,37.2733154296875,0.018482961189182773
192,1732719092.2349045,2.5802477598190308,2.5329439640045166,37.28424835205078,0.01857175288179413
193,1732719092.247864,2.5877503156661987,2.5329439640045166,37.29569625854492,0.01852047949354853
194,1732719092.2598684,2.5952342748641968,2.5577073097229004,37.320255279541016,0.018613771246263434
195,1732719092.2738922,2.5998404026031494,2.5577073097229004,37.33182144165039,0.018577599172045933
196,1732719092.286915,2.606510877609253,2.582395076751709,37.34470748901367,0.018469349014088643
197,1732719092.299904,2.615327000617981,2.582395076751709,37.35822296142578,0.018272565909318746
198,1732719092.3128526,2.638845205307007,2.6081044673919678,37.38376235961914,0.018153105512046176
199,1732719092.3259065,2.652016282081604,2.6081044673919678,37.39624786376953,0.01801683955024185
200,1732719092.3388658,2.664247751235962,2.634793281555176,37.40803909301758,0.01802784199384304
201,1732719092.3518627,2.681524395942688,2.634793281555176,37.43053436279297,0.018007837003774514
202,1732719092.364859,2.685886025428772,2.6595563888549805,37.442378997802734,0.018285390711999302
203,1732719092.3768642,2.6891990900039673,2.6595563888549805,37.45492172241211,0.018572691174307196
204,1732719092.3898528,2.693458914756775,2.686224937438965,37.46677017211914,0.018774038896225746
205,1732719092.4019158,2.706350088119507,2.686224937438965,37.4941520690918,0.01907981847548144
206,1732719092.4149067,2.7147306203842163,2.710942029953003,37.50738525390625,0.019365270605596816
