,Time,Force,GoalForce,Pos,k
0,0.12403225898742676,0.2048522531986236,0.2732517123222351,34.60896301269531,0.04
1,0.13703465461730957,0.2065651789307594,0.2732517123222351,34.612701416015625,0.04
2,0.15001177787780762,0.2078045681118965,0.2979548573493957,34.61701583862305,0.04
3,0.16206026077270508,0.2087576687335968,0.2979548573493957,34.621734619140625,0.04
4,0.17505216598510742,0.2120215073227882,0.3236473500728607,34.63116836547852,0.04
5,0.18801045417785645,0.2142062559723854,0.3236473500728607,34.63623046875,0.04
6,0.2000117301940918,0.2169211879372596,0.3484108448028564,34.64192581176758,0.04
7,0.21205997467041016,0.2200803011655807,0.3484108448028564,34.64796447753906,0.04
8,0.22501230239868164,0.226962462067604,0.3730944097042084,34.65998840332031,0.04
9,0.23804259300231934,0.230724461376667,0.3730944097042084,34.66643142700195,0.04
10,0.2510349750518799,0.2340444549918174,0.3978185355663299,34.67298889160156,0.04
11,0.26401329040527344,0.2369977086782455,0.3978185355663299,34.67960357666016,0.04
12,0.27606725692749023,0.244517907500267,0.4235534369945526,34.693580627441406,0.04
13,0.28901052474975586,0.2486417889595031,0.4235534369945526,34.70008087158203,0.04
14,0.3020131587982178,0.2525713294744491,0.448308914899826,34.70698165893555,0.04
15,0.31403183937072754,0.2596218436956405,0.448308914899826,34.72136688232422,0.04
16,0.3270108699798584,0.2634445875883102,0.4739679098129272,34.72878646850586,0.04
17,0.3390531539916992,0.267543077468872,0.4739679098129272,34.73638153076172,0.04
18,0.3510596752166748,0.2713289111852646,0.498689204454422,34.74391555786133,0.04
19,0.36403346061706543,0.2752918303012848,0.498689204454422,34.75260162353516,0.04
20,0.3770284652709961,0.2840753346681595,0.5224723219871521,34.76934051513672,0.04
21,0.39000988006591797,0.2895434647798538,0.5224723219871521,34.77894592285156,0.04
22,0.40204620361328125,0.29560686647892,0.5481539368629456,34.788726806640625,0.0377202027142047
23,0.4150118827819824,0.3071073591709137,0.5481539368629456,34.808746337890625,0.0357669785037636
24,0.42799997329711914,0.3132110983133316,0.572894811630249,34.81892776489258,0.0340704618616402
25,0.4400625228881836,0.320138156414032,0.572894811630249,34.83002853393555,0.0326107636815458
26,0.45301103591918945,0.3277152925729751,0.5985615849494934,34.84101867675781,0.0312649639227524
27,0.4650118350982666,0.3448560982942581,0.5985615849494934,34.86661529541016,0.0299813908066035
28,0.4780001640319824,0.3539518266916275,0.6232960820198059,34.88116836547852,0.0287123882450772
29,0.4900534152984619,0.3636168986558914,0.6232960820198059,34.89606857299805,0.0275640274520021
30,0.5020902156829834,0.3734999895095825,0.6480088829994202,34.90993118286133,0.0264249181391568
31,0.5150101184844971,0.3933650553226471,0.6480088829994202,34.942832946777344,0.0253778532348667
32,0.5280530452728271,0.404606282711029,0.6718325018882751,34.95928955078125,0.0242824355880255
33,0.5409996509552002,0.4167365431785583,0.6718325018882751,34.97539520263672,0.0231730303834231
34,0.5530116558074951,0.4290931522846222,0.6975082159042358,34.99178695678711,0.0220323741625563
35,0.5650153160095215,0.45384182035923,0.6975082159042358,35.029579162597656,0.0209087313695981
36,0.5780515670776367,0.4674924463033676,0.7221909165382385,35.049827575683594,0.0197485101618678
37,0.5910110473632812,0.4832091033458709,0.7221909165382385,35.07122802734375,0.0186138182787577
38,0.6040003299713135,0.4993974566459656,0.7469539046287537,35.091190338134766,0.0174953813396525
39,0.6160173416137695,0.5334658026695251,0.7469539046287537,35.13640213012695,0.0164529109877466
40,0.6280515193939209,0.5510640442371368,0.7726157307624817,35.16194534301758,0.0154591265029119
41,0.6410114765167236,0.5698063969612122,0.7726157307624817,35.18800354003906,0.0145384501850372
42,0.6540002822875977,0.5908675193786621,0.7964009642601013,35.21400451660156,0.0136686802076488
43,0.6660494804382324,0.6394542455673218,0.7964009642601013,35.26715850830078,0.0128424253836741
44,0.6790189743041992,0.665270984172821,0.8220628499984741,35.29436492919922,0.0120593024235639
45,0.6910507678985596,0.6917321383953094,0.8220628499984741,35.32358932495117,0.0113318120989954
46,0.7040109634399414,0.7175358831882477,0.8468047976493835,35.35200500488281,0.0106643067516019
47,0.7170002460479736,0.7695313096046448,0.8468047976493835,35.41073989868164,0.0100461695947167
48,0.7290127277374268,0.7966861724853516,0.871520459651947,35.44111251831055,0.0094717421739921
49,0.7440471649169922,0.8251659870147705,0.871520459651947,35.472347259521484,0.0089389838245921
50,0.7570393085479736,0.8853002190589905,0.8962457776069641,35.53125,0.0084427055128586
51,0.7700114250183105,0.9156935513019562,0.8962457776069641,35.55800247192383,0.0079448979722191
52,0.7820448875427246,0.9446007907390594,0.9219585657119752,35.58457565307617,0.0074638937983345
53,0.7950124740600586,0.9967343509197236,0.9219585657119752,35.63801574707031,0.0069960582973896
54,0.8080408573150635,1.0202369689941406,0.9486914873123168,35.664363861083984,0.0066680594648649
55,0.8200435638427734,1.0432074666023254,0.9486914873123168,35.68949890136719,0.0063639744409453
56,0.8330001831054688,1.06669282913208,0.9744000434875488,35.71153259277344,0.0062808621411202
57,0.8450117111206055,1.1131437420845032,0.9744000434875488,35.758758544921875,0.0061110241660188
58,0.8570122718811035,1.135243833065033,0.9990833401679992,35.77952575683594,0.0061546003083477
59,0.8690121173858643,1.1565021276474,0.9990833401679992,35.79810333251953,0.0061251860903283
60,0.8810453414916992,1.1748735308647156,1.0228296518325806,35.812950134277344,0.0062990067866367
61,0.8940460681915283,1.190159797668457,1.0228296518325806,35.829917907714844,0.0064472080979725
62,0.9070119857788086,1.2140345573425293,1.046597242355347,35.8570671081543,0.0065672689904851
63,0.9190149307250977,1.2227237224578855,1.046597242355347,35.87006759643555,0.0066600779035016
64,0.9310512542724609,1.2307696342468262,1.0722767114639282,35.88168716430664,0.0068286056411258
65,0.9440109729766846,1.2383044958114624,1.0722767114639282,35.89440155029297,0.0070069658838503
66,0.9570004940032959,1.2535392045974731,1.0960503816604614,35.91787338256836,0.0073021706155949
67,0.9690694808959961,1.2622288465499878,1.0960503816604614,35.92926025390625,0.0076498742181372
68,0.9820535182952881,1.2710190415382383,1.1217124462127686,35.939212799072266,0.0081093373770992
69,0.99503493309021,1.289099097251892,1.1217124462127686,35.96147537231445,0.0086050285362137
70,1.007044792175293,1.2978229522705078,1.1464885473251345,35.971946716308594,0.009498964932227
71,1.0190579891204834,1.3033974766731262,1.1464885473251345,35.98126220703125,0.0103893383771156
72,1.032010555267334,1.3115323185920715,1.171203374862671,35.9901237487793,0.0116491204363085
73,1.0440559387207031,1.3255071640014648,1.171203374862671,36.0070915222168,0.0128592178623656
74,1.0570118427276611,1.331499695777893,1.1958930492401123,36.0145149230957,0.0144356923536163
75,1.0690124034881592,1.3365187644958496,1.1958930492401123,36.020896911621094,0.0159895037995906
76,1.081052541732788,1.3399435877799988,1.2206178903579712,36.02659225463867,0.0178558653939186
77,1.0940062999725342,1.3421041369438171,1.2206178903579712,36.03274917602539,0.0194592626108305
78,1.1060118675231934,1.3457099795341492,1.2443927526474,36.0440788269043,0.0204405169156411
79,1.119011402130127,1.3476839065551758,1.2443927526474,36.04931640625,0.0213782987788813
80,1.1310126781463623,1.349858582019806,1.2690761089324951,36.054664611816406,0.0222547288726714
81,1.1440041065216064,1.351759433746338,1.2690761089324951,36.05989837646485,0.0231994910679114
82,1.1570000648498535,1.354516327381134,1.2938004732131958,36.069278717041016,0.0243395196922289
83,1.1690120697021484,1.3558090329170227,1.2938004732131958,36.0741081237793,0.025439914914459
84,1.1810121536254883,1.357964277267456,1.31950044631958,36.07963180541992,0.0266053428672165
85,1.1930124759674072,1.3605622053146362,1.31950044631958,36.085784912109375,0.0276712019374141
86,1.2060120105743408,1.367554247379303,1.3432470560073853,36.09855651855469,0.0281374645945581
87,1.2190117835998535,1.373477280139923,1.3432470560073853,36.10517120361328,0.0284658190802174
88,1.2310121059417725,1.3806850910186768,1.3679704666137695,36.11115646362305,0.028628668422589
89,1.2430534362792969,1.3886817693710327,1.3679704666137695,36.11748123168945,0.0288701031223738
90,1.2560479640960693,1.4042251110076904,1.392694115638733,36.131343841552734,0.0291870529457155
91,1.2680602073669434,1.4113292694091797,1.392694115638733,36.13813400268555,0.0295911560956439
92,1.2810475826263428,1.418422520160675,1.4174531698226929,36.14492034912109,0.0299826746139348
93,1.294010877609253,1.4255957007408142,1.4174531698226929,36.15170669555664,0.0302848880696375
94,1.306011438369751,1.4403472542762756,1.442176342010498,36.16373062133789,0.030661727357633
95,1.3180675506591797,1.4469899535179138,1.442176342010498,36.169830322265625,0.0309956769961659
96,1.331052303314209,1.4526655673980713,1.4668641090393066,36.17575454711914,0.0314059027271161
97,1.3430533409118652,1.4580712914466858,1.4668641090393066,36.18173599243164,0.031904686755242
98,1.3560001850128174,1.4686335325241089,1.4916281700134275,36.19416046142578,0.0324935738888103
99,1.3680143356323242,1.4738348126411438,1.4916281700134275,36.2000846862793,0.0331432152223633
100,1.3810105323791504,1.4789576530456543,1.516300082206726,36.206241607666016,0.0338257066248697
101,1.3930115699768066,1.4838555455207825,1.516300082206726,36.213260650634766,0.0344212922607817
102,1.4050452709197998,1.4931591749191284,1.5410339832305908,36.226661682128906,0.0349507032175324
103,1.4170594215393066,1.4985761046409607,1.5410339832305908,36.23385238647461,0.0354126340156312
104,1.4300537109375,1.5046550035476685,1.564802885055542,36.2411003112793,0.0357545860265656
105,1.4430062770843506,1.5121617913246157,1.564802885055542,36.24817657470703,0.0359966544200448
106,1.4550118446350098,1.5319982171058657,1.5895347595214844,36.2633056640625,0.0360749762853504
107,1.4679999351501465,1.5428499579429626,1.5895347595214844,36.27095413208008,0.0360609577537048
108,1.4800002574920654,1.553542971611023,1.614216923713684,36.278316497802734,0.0359986918962421
109,1.4920105934143066,1.564604103565216,1.614216923713684,36.28596878051758,0.0358513196822782
110,1.5050127506256104,1.5888152718544006,1.6389288902282717,36.299835205078125,0.0358387731477719
111,1.5170481204986572,1.6005593538284302,1.6389288902282717,36.30662155151367,0.0357280424653084
112,1.5300428867340088,1.6114785075187683,1.6636648178100586,36.31289291381836,0.0356753290967874
113,1.5430002212524414,1.6213302612304688,1.6636648178100586,36.31916427612305,0.0355655473122059
114,1.555999994277954,1.6368242502212524,1.6884182691574097,36.331356048583984,0.0356863775088542
115,1.5680122375488281,1.6439231634140017,1.6884182691574097,36.33687973022461,0.0356619325191515
116,1.5810105800628662,1.6506553292274475,1.7140883207321167,36.34251403808594,0.0358991328845087
117,1.5930516719818115,1.6568042039871216,1.7140883207321167,36.3491325378418,0.0361961066546736
118,1.6060478687286377,1.6678935289382937,1.738822340965271,36.36328125,0.0365050962408808
119,1.6190111637115479,1.6747853755950928,1.738822340965271,36.37104797363281,0.0367891775077964
120,1.631014347076416,1.6834625601768494,1.7635825872421265,36.37835311889648,0.0368688694244371
121,1.6440067291259766,1.6932941675186155,1.7635825872421265,36.38542938232422,0.0368440974449288
122,1.6560533046722412,1.7109556794166565,1.7882732152938845,36.40159225463867,0.0366298153574918
123,1.6680607795715332,1.717303991317749,1.7882732152938845,36.409934997558594,0.0363016119965006
124,1.6810519695281982,1.7214725613594055,1.813035249710083,36.41839218139648,0.0357989363105376
125,1.6940114498138428,1.7240999341011047,1.813035249710083,36.42673110961914,0.0352251301093054
126,1.70701265335083,1.7306348085403442,1.837757587432861,36.4443359375,0.0346016819670634
127,1.719066858291626,1.7352071404457092,1.837757587432861,36.45336532592773,0.0339675899575505
128,1.7320115566253662,1.740331947803497,1.863431096076965,36.46245574951172,0.0334000894782263
129,1.7440392971038818,1.7522448897361755,1.863431096076965,36.48120880126953,0.0328289945594058
130,1.757000207901001,1.7616870403289795,1.8881535530090328,36.49150466918945,0.0325376345296132
131,1.7690117359161377,1.772569179534912,1.8881535530090328,36.501861572265625,0.0321118302118266
132,1.7820100784301758,1.7843636274337769,1.9128658771514893,36.512325286865234,0.0314985642482177
133,1.795006513595581,1.8087234497070312,1.9128658771514893,36.53401565551758,0.0310386326595547
134,1.8070454597473145,1.8207038044929504,1.9375991821289065,36.54517364501953,0.0304924343169691
135,1.8190715312957764,1.83264422416687,1.9375991821289065,36.5565071105957,0.0299731808132793
136,1.8320107460021973,1.8438897728919983,1.962357521057129,36.56708908081055,0.0296570439392506
137,1.8440449237823486,1.8648819327354431,1.962357521057129,36.58940887451172,0.0295236734751623
138,1.8560471534729004,1.8755682706832888,1.9870469570159912,36.60097122192383,0.0294890635717298
139,1.869049072265625,1.887143313884735,1.9870469570159912,36.61155700683594,0.0295364631496416
140,1.8820111751556396,1.899439573287964,2.010817527770996,36.622314453125,0.0296285165800941
141,1.8940112590789795,1.923134684562683,2.010817527770996,36.6451530456543,0.0297322639186047
142,1.9060120582580566,1.9347330331802368,2.036494493484497,36.65584945678711,0.0298177081741866
143,1.9180679321289062,1.9470542073249817,2.036494493484497,36.667701721191406,0.0298809535114148
144,1.9310123920440674,1.960372507572174,2.060230016708374,36.67955017089844,0.0299849752090733
145,1.9430572986602783,1.974211812019348,2.060230016708374,36.69145965576172,0.0301963900925839
146,1.956047773361206,2.0025634169578552,2.084954023361206,36.71355056762695,0.0299017987014763
147,1.9690003395080566,2.015562891960144,2.084954023361206,36.72465133666992,0.0295740703965943
148,1.9810564517974854,2.0282074213027954,2.1097123622894287,36.73569488525391,0.0290564735063065
149,1.9940118789672852,2.041804432868957,2.1097123622894287,36.74656677246094,0.0283825646857752
150,2.006011962890625,2.0707353949546814,2.1344449520111084,36.76969146728516,0.0279006731677354
151,2.018012285232544,2.0846056938171387,2.1344449520111084,36.78142929077149,0.0273140098230511
152,2.0300886631011963,2.098044514656067,2.1591241359710693,36.7921257019043,0.0265146168464247
153,2.0430519580841064,2.110905408859253,2.1591241359710693,36.80414962768555,0.0255624627227029
154,2.0550525188446045,2.1373074054718018,2.182934522628784,36.82761764526367,0.0246535597507156
155,2.068000078201294,2.151967763900757,2.182934522628784,36.83877944946289,0.0238037684870359
156,2.0800297260284424,2.167269468307495,2.2076222896575928,36.8501091003418,0.0230851408224639
157,2.0940136909484863,2.180903911590576,2.2076222896575928,36.86161422729492,0.0224072332425121
158,2.1060523986816406,2.2047840356826782,2.232323408126831,36.88433837890625,0.0218642673858884
159,2.119032382965088,2.216578960418701,2.232323408126831,36.896705627441406,0.0213297722013786
160,2.1310336589813232,2.229732394218445,2.2580583095550537,36.90907287597656,0.0208391886745687
161,2.144057035446167,2.261115074157715,2.2580583095550537,36.93536376953125,0.0203186741213317
162,2.15700626373291,2.2779736518859863,2.282763719558716,36.94916915893555,0.0200003063223048
163,2.1690115928649902,2.294066548347473,2.282763719558716,36.96216583251953,0.0197440039850429
164,2.1810309886932373,2.308417797088623,2.3084487915039062,36.97378921508789,0.0195737139943679
165,2.195010185241699,2.319316864013672,2.3084487915039062,36.9873046875,0.0195464201551771
166,2.2080061435699463,2.3330453634262085,2.332207679748535,37.01261520385742,0.0190639115377154
167,2.220031261444092,2.338708877563477,2.332207679748535,37.02602005004883,0.0186283331665891
168,2.2330117225646973,2.3460090160369877,2.358884811401367,37.040287017822266,0.018026734319642
169,2.2450478076934814,2.370202898979187,2.358884811401367,37.07077407836914,0.0174682887552513
170,2.25801157951355,2.386826515197754,2.3836138248443604,37.086822509765625,0.017193316488713
171,2.2710113525390625,2.4053279161453247,2.3836138248443604,37.10195541381836,0.0170502708353847
172,2.283071756362915,2.424240469932556,2.408337354660034,37.11518096923828,0.0169856131224259
173,2.2960522174835205,2.457168221473694,2.408337354660034,37.142276763916016,0.0168542676551722
174,2.308056354522705,2.4697195291519165,2.4331202507019043,37.154296875,0.0169729227990134
175,2.3210463523864746,2.479899048805237,2.4331202507019043,37.1671257019043,0.0170236093703112
176,2.3340141773223877,2.488219141960144,2.457828521728516,37.17966842651367,0.0172899498033406
177,2.346053123474121,2.503308176994324,2.457828521728516,37.20693588256836,0.0174999540809883
178,2.359013080596924,2.51326322555542,2.48349928855896,37.22119903564453,0.0178184898135745
179,2.371999979019165,2.5257508754730225,2.48349928855896,37.23529052734375,0.0181924158502534
180,2.3840112686157227,2.555271863937378,2.5082216262817383,37.26140975952149,0.0183108201252444
181,2.3960530757904053,2.5692059993743896,2.5082216262817383,37.2733154296875,0.0184829611891827
182,2.4090516567230225,2.5802477598190308,2.5329439640045166,37.28424835205078,0.0185717528817941
183,2.422011375427246,2.5877503156661987,2.5329439640045166,37.29569625854492,0.0185204794935485
184,2.4340157508850098,2.5952342748641968,2.5577073097229004,37.320255279541016,0.0186137712462634
185,2.4480395317077637,2.5998404026031494,2.5577073097229004,37.33182144165039,0.0185775991720459
186,2.461062431335449,2.606510877609253,2.582395076751709,37.34470748901367,0.0184693490140886
187,2.4740514755249023,2.615327000617981,2.582395076751709,37.35822296142578,0.0182725659093187
188,2.486999988555908,2.638845205307007,2.608104467391968,37.38376235961914,0.0181531055120461
189,2.500053882598877,2.652016282081604,2.608104467391968,37.39624786376953,0.0180168395502418
190,2.5130131244659424,2.664247751235962,2.634793281555176,37.40803909301758,0.018027841993843
191,2.526010274887085,2.681524395942688,2.634793281555176,37.43053436279297,0.0180078370037745
192,2.539006471633911,2.685886025428772,2.6595563888549805,37.442378997802734,0.0182853907119993
193,2.551011562347412,2.6891990900039677,2.6595563888549805,37.45492172241211,0.0185726911743071
194,2.564000129699707,2.693458914756775,2.686224937438965,37.46677017211914,0.0187740388962257
195,2.5760631561279297,2.706350088119507,2.686224937438965,37.4941520690918,0.0190798184754814
196,2.5890541076660156,2.7147306203842163,2.710942029953003,37.50738525390625,0.0193652706055968
197,2.6020116806030273,2.723907709121704,2.710942029953003,37.52107238769531,0.0196831353791769
198,2.614999771118164,2.742048144340515,2.7357189655303955,37.547306060791016,0.0197537646774842
199,2.6280124187469482,2.750164747238159,2.7357189655303955,37.55967330932617,0.0198947822527046
200,2.6410114765167236,2.7568331956863403,2.761390686035156,37.57324981689453,0.0198342528247197
201,2.6530518531799316,2.7611372470855717,2.761390686035156,37.58665084838867,0.0197657545331144
202,2.665062665939331,2.7651606798172,2.7871017456054688,37.61334228515625,0.0198063876411041
203,2.678011655807495,2.7674145698547363,2.7871017456054688,37.62824249267578,0.0196677719367195
204,2.6910109519958496,2.772016167640686,2.810887098312378,37.64239501953125,0.0193785598334058
205,2.7030460834503174,2.779296278953552,2.810887098312378,37.65677261352539,0.0189867230726526
206,2.7150492668151855,2.7955996990203857,2.8365485668182373,37.68571090698242,0.0186610076552551
207,2.72802996635437,2.8022691011428837,2.8365485668182373,37.69991683959961,0.0183648386576105
208,2.7400693893432617,2.808701276779175,2.860321044921875,37.715450286865234,0.0181856397743519
209,2.753011465072632,2.815852403640747,2.860321044921875,37.73173141479492,0.0180121481602337
