,Time,Force,GoalForce,Pos,k
0,1732629425.1757472,0.21923837810754776,0.20000000298023224,34.827842712402344,0.04
1,1732629425.1887355,0.2335079461336136,0.20000000298023224,34.8612060546875,0.04
2,1732629425.200736,0.23492975533008575,0.20000000298023224,34.86540985107422,0.04
3,1732629425.2127445,0.23642347753047943,0.2335079312324524,34.87001037597656,0.04
4,1732629425.2257485,0.2383337765932083,0.2335079312324524,34.87582015991211,0.04
5,1732629425.2377763,0.24438071250915527,0.25720545649528503,34.88697814941406,0.04
6,1732629425.2507727,0.24891746789216995,0.25720545649528503,34.893131256103516,0.04
7,1732629425.262782,0.25327131152153015,0.28191256523132324,34.89951705932617,0.04
8,1732629425.2757654,0.25784875452518463,0.28191256523132324,34.90567398071289,0.04
9,1732629425.2877762,0.26756806671619415,0.30659398436546326,34.91752243041992,0.04
10,1732629425.3007712,0.2715372145175934,0.30659398436546326,34.92414093017578,0.04
11,1732629425.3137524,0.2756766751408577,0.3312638998031616,34.92983627319336,0.04
12,1732629425.325771,0.27970176935195923,0.3312638998031616,34.93656539916992,0.04
13,1732629425.3387475,0.28696011006832123,0.356903076171875,34.95065689086914,0.04
14,1732629425.3517475,0.29125650227069855,0.356903076171875,34.95738983154297,0.04
15,1732629425.3647475,0.2955758571624756,0.3815739154815674,34.964351654052734,0.04
16,1732629425.3767598,0.299789160490036,0.3815739154815674,34.97136688232422,0.04
17,1732629425.3887987,0.30883605778217316,0.40723663568496704,34.984310150146484,0.04
18,1732629425.401763,0.3134084641933441,0.40723663568496704,34.99150085449219,0.04
19,1732629425.4147472,0.3180132657289505,0.4309758245944977,34.99869155883789,0.04
20,1732629425.427747,0.32276614010334015,0.4309758245944977,35.006568908691406,0.04
21,1732629425.4397833,0.33189138770103455,0.45658770203590393,35.02267837524414,0.04
22,1732629425.452748,0.33690595626831055,0.45658770203590393,35.03182601928711,0.04
23,1732629425.4647596,0.34259891510009766,0.4812990128993988,35.04108428955078,0.04
24,1732629425.4777472,0.34886354207992554,0.4812990128993988,35.05040740966797,0.04
25,1732629425.4907472,0.36411646008491516,0.5059512853622437,35.06967544555664,0.04
26,1732629425.5027766,0.3717208802700043,0.5059512853622437,35.078819274902344,0.04
27,1732629425.5157638,0.37924864888191223,0.5316017866134644,35.08733367919922,0.04
28,1732629425.5277793,0.3929886072874069,0.5316017866134644,35.10591506958008,0.04
29,1732629425.5407486,0.39910438656806946,0.556293785572052,35.115177154541016,0.0374601250179112
30,1732629425.5527794,0.40590333938598633,0.556293785572052,35.124610900878906,0.035200463577732446
31,1732629425.5647826,0.4133642017841339,0.5809544920921326,35.1334114074707,0.033123645624928186
32,1732629425.5777712,0.4207941144704819,0.5809544920921326,35.14422607421875,0.0313059463200681
33,1732629425.589772,0.43685975670814514,0.6046767234802246,35.168216705322266,0.029467882228438193
34,1732629425.6027474,0.4460776150226593,0.6046767234802246,35.18121337890625,0.02785042203221691
35,1732629425.6157472,0.4557383954524994,0.6293419003486633,35.1950798034668,0.02626608615446662
36,1732629425.6277585,0.47870610654354095,0.6293419003486633,35.225162506103516,0.024844890861915724
37,1732629425.6407995,0.49150116741657257,0.6549801826477051,35.23983383178711,0.023592282727396947
38,1732629425.6537597,0.5051514208316803,0.6549801826477051,35.25473403930664,0.022441668546977458
39,1732629425.6657875,0.5191020369529724,0.6797074675559998,35.26951599121094,0.021403914789959327
40,1732629425.6777885,0.5467100143432617,0.7003771066665649,35.30403137207031,0.020321654022280457
41,1732629425.690747,0.5619754791259766,0.7003771066665649,35.32295227050781,0.01909974903885491
42,1732629425.7027814,0.5784418880939484,0.7003771066665649,35.34245681762695,0.017832202356150458
43,1732629425.7157724,0.5953524708747864,0.7260462045669556,35.36235809326172,0.016629995811215676
44,1732629425.7287357,0.6340477168560028,0.7260462045669556,35.402740478515625,0.015441117325706754
45,1732629425.7407987,0.6552498936653137,0.7537078261375427,35.424888610839844,0.01453167687515927
46,1732629425.7537472,0.6777161061763763,0.7537078261375427,35.447784423828125,0.013694025073517973
47,1732629425.766735,0.7010282874107361,0.7784094214439392,35.469642639160156,0.013025593491556898
48,1732629425.7797353,0.7505003213882446,0.7784094214439392,35.51848220825195,0.01236980679712831
49,1732629425.7917974,0.7765296399593353,0.8040093183517456,35.54172134399414,0.011829971635330967
50,1732629425.8047352,0.8033168315887451,0.8040093183517456,35.56427001953125,0.011309343939115927
51,1732629425.8167863,0.8297257721424103,0.8287465572357178,35.58624267578125,0.010843645297444157
52,1732629425.8297658,0.8797366321086884,0.8287465572357178,35.632896423339844,0.010410579557007216
53,1732629425.8417718,0.9034141898155212,0.8534112572669983,35.65550231933594,0.010035742180602845
54,1732629425.8547356,0.9275774657726288,0.8534112572669983,35.67707443237305,0.009698717019310979
55,1732629425.8667357,0.9521437287330627,0.8780726790428162,35.69715118408203,0.00940886306809013
56,1732629425.8787472,0.9990115761756897,0.8780726790428162,35.73759078979492,0.009141438327028975
57,1732629425.8907707,1.020359843969345,0.9027127027511597,35.75668716430664,0.00892245243016895
58,1732629425.9037402,1.041222333908081,0.9027127027511597,35.77342987060547,0.008716354064858106
59,1732629425.9157825,1.0612120032310486,0.9264358282089233,35.78884506225586,0.008595206468373072
60,1732629425.928736,1.0984774827957153,0.9264358282089233,35.818931579589844,0.008479548575269759
61,1732629425.940785,1.1145336031913757,0.9511231780052185,35.833370208740234,0.008512046615142448
62,1732629425.9537475,1.1293461322784424,0.9511231780052185,35.84700393676758,0.008552224014573237
63,1732629425.9667358,1.1437915563583374,0.9758012890815735,35.85799026489258,0.008907400398885854
64,1732629425.97877,1.1688734292984009,0.9758012890815735,35.88197708129883,0.009265789497884197
65,1732629425.991768,1.1795556545257568,1.0014156103134155,35.892906188964844,0.01012032976805456
66,1732629426.0047467,1.1899577379226685,1.0014156103134155,35.902339935302734,0.010896663563483544
67,1732629426.0178082,1.1994346976280212,1.0261229276657104,35.91108322143555,0.012079299305707442
68,1732629426.030735,1.2151654958724976,1.0261229276657104,35.92695999145508,0.013153894974139536
69,1732629426.0427475,1.2209195494651794,1.0518254041671753,35.93421173095703,0.014720280714345458
70,1732629426.055747,1.2257857918739319,1.0518254041671753,35.940765380859375,0.01609063088671489
71,1732629426.0677834,1.2350139617919922,1.0764411687850952,35.954227447509766,0.016790711527551322
72,1732629426.080747,1.2391658425331116,1.0764411687850952,35.96084213256836,0.017497679683999814
73,1732629426.0927474,1.2434222102165222,1.1011521816253662,35.96711349487305,0.018236766429337796
74,1732629426.1057768,1.24820876121521,1.1011521816253662,35.97395706176758,0.01908751480721796
75,1732629426.118734,1.2590741515159607,1.1257925033569336,35.98649978637695,0.020128428254515208
76,1732629426.1307359,1.265472173690796,1.1257925033569336,35.99253845214844,0.021175015104404338
77,1732629426.1427486,1.2717888355255127,1.1514418125152588,35.998748779296875,0.02228403297000341
78,1732629426.1548078,1.2772921919822693,1.1514418125152588,36.00496292114258,0.023287434118389
79,1732629426.1677358,1.2883345484733582,1.175144910812378,36.01606750488281,0.024351304013191678
80,1732629426.1797526,1.2936732172966003,1.175144910812378,36.02141571044922,0.025292456363432723
81,1732629426.191842,1.2985498905181885,1.1998080015182495,36.02630615234375,0.026333241356724307
82,1732629426.204776,1.3027203679084778,1.1998080015182495,36.03102111816406,0.027328175628167813
83,1732629426.2177718,1.3090243339538574,1.2236015796661377,36.04074478149414,0.028420056617840313
84,1732629426.2307484,1.312223494052887,1.2236015796661377,36.04551696777344,0.029274026572630566
85,1732629426.243757,1.3156065940856934,1.249194860458374,36.050235748291016,0.030267735215955164
86,1732629426.2567708,1.3193874955177307,1.249194860458374,36.054893493652344,0.03125870777034746
87,1732629426.2697802,1.328807294368744,1.2748430967330933,36.06438446044922,0.03232858973321903
88,1732629426.2827435,1.3334080576896667,1.2748430967330933,36.06892776489258,0.033193547480502024
89,1732629426.2947469,1.3376210927963257,1.3005285263061523,36.07301330566406,0.03420016187715378
90,1732629426.3067849,1.3417688012123108,1.3005285263061523,36.077213287353516,0.03509412200708252
91,1732629426.319788,1.3481318950653076,1.3251713514328003,36.0863037109375,0.03605083331280108
92,1732629426.33181,1.3519176244735718,1.3251713514328003,36.091651916503906,0.0368715580238088
93,1732629426.3447745,1.3568584322929382,1.349887728691101,36.09700012207031,0.037592708849893575
94,1732629426.3577356,1.3628938794136047,1.349887728691101,36.10287094116211,0.03826904203056088
95,1732629426.3697357,1.3796985745429993,1.3745499849319458,36.11471939086914,0.03833291222654693
96,1732629426.3817685,1.3889344930648804,1.3745499849319458,36.12001037597656,0.03840596972408515
97,1732629426.3947737,1.397744596004486,1.399187445640564,36.125301361083984,0.038281195969903065
98,1732629426.4077356,1.4131832718849182,1.399187445640564,36.13795852661133,0.03815641018288457
99,1732629426.419736,1.4207618832588196,1.4239006042480469,36.14417266845703,0.03806762706521562
100,1732629426.4317474,1.429550290107727,1.4239006042480469,36.15038299560547,0.03744869286969373
101,1732629426.4437873,1.4390109181404114,1.4485390186309814,36.15636444091797,0.03683783058960798
102,1732629426.4567664,1.447823703289032,1.4485390186309814,36.16211700439453,0.036287248384710216
103,1732629426.468771,1.4637168049812317,1.4722784757614136,36.1731071472168,0.035047252515038305
104,1732629426.480774,1.471396267414093,1.4722784757614136,36.178802490234375,0.034181683843505783
105,1732629426.4927845,1.4788269996643066,1.4969379901885986,36.184326171875,0.033326471412335995
106,1732629426.5057724,1.4858436584472656,1.4969379901885986,36.190250396728516,0.03269000033064648
107,1732629426.5187578,1.4986839890480042,1.5206398963928223,36.20273208618164,0.03222386010310618
108,1732629426.5317352,1.5056365728378296,1.5206398963928223,36.20888900756836,0.03176787392337532
109,1732629426.5437357,1.513999104499817,1.5462764501571655,36.215328216552734,0.03124585952794026
110,1732629426.5567772,1.5234468579292297,1.5462764501571655,36.222923278808594,0.03065664636137012
111,1732629426.568797,1.5421586632728577,1.5709301233291626,36.23741912841797,0.029963742795961413
112,1732629426.5817595,1.5536012649536133,1.5709301233291626,36.245243072509766,0.029287716242710333
113,1732629426.5947473,1.5657068490982056,1.595666527748108,36.25283432006836,0.028612683222925286
114,1732629426.606779,1.5781704783439636,1.595666527748108,36.26089096069336,0.027972103288384335
115,1732629426.6197476,1.601915419101715,1.6212800741195679,36.277976989746094,0.02736014787609463
116,1732629426.6317763,1.6136628985404968,1.6212800741195679,36.28654479980469,0.0267598259978451
117,1732629426.6447358,1.6258383393287659,1.6459561586380005,36.29500198364258,0.02620629532184818
118,1732629426.6567464,1.6497527956962585,1.6459561586380005,36.31139373779297,0.0255903216127749
119,1732629426.6687953,1.661084532737732,1.670620083808899,36.31945037841797,0.025105790742414806
120,1732629426.6817472,1.671876311302185,1.670620083808899,36.32698440551758,0.024839463634649766
121,1732629426.6937826,1.6816126108169556,1.694367527961731,36.33463668823242,0.024649850550317633
122,1732629426.7067356,1.6903809309005737,1.694367527961731,36.342342376708984,0.024604779614231468
123,1732629426.718747,1.70615953207016,1.7190306186676025,36.35752868652344,0.023977255493302478
124,1732629426.7307477,1.7137463688850403,1.7190306186676025,36.366214752197266,0.023566021065323947
125,1732629426.7437472,1.7229427099227905,1.7436710596084595,36.3751335144043,0.02306609377152568
126,1732629426.755748,1.7336578369140625,1.7436710596084595,36.38462448120117,0.022678213043989353
127,1732629432.7964272,1.7663482427597046,7.730606555938721,36.92477798461914,0.02216467136053587
128,1732629432.8243718,1.7729653716087341,7.730606555938721,37.01319122314453,0.020649327467680084
129,1732629432.8369532,1.8981415629386902,7.730606555938721,36.996971130371094,0.019942328320413927
130,1732629432.8499408,2.0418962836265564,7.770089626312256,36.995819091796875,0.019999667058709352
131,1732629432.861952,2.058865785598755,7.770089626312256,36.995819091796875,0.020985852450421234
132,1732629432.8739903,2.0473783016204834,7.795327186584473,36.995819091796875,0.01998825300436388
133,1732629432.88699,2.023414969444275,7.795327186584473,36.995819091796875,0.019403101983974907
134,1732629432.899988,1.9811667799949646,7.819064140319824,36.995819091796875,0.018770784515867115
135,1732629432.911993,1.9706110954284668,7.819064140319824,36.995819091796875,0.018272510882076157
136,1732629432.924983,1.9652610421180725,7.844724655151367,36.995819091796875,0.017626123639961955
137,1732629432.9369836,1.9591314196586609,7.844724655151367,36.995819091796875,0.017677742925006935
138,1732629432.9489846,1.9556428790092468,7.869395732879639,36.995819091796875,0.017116678077029098
139,1732629432.9617922,1.9524701833724976,7.869395732879639,36.995819091796875,0.01670327449713371
140,1732629432.973796,1.949958860874176,7.893085956573486,36.995819091796875,0.016309326498576002
141,1732629432.9857984,1.9472997784614563,7.893085956573486,36.995819091796875,0.015951477628679274
142,1732629432.9977987,1.9394291639328003,7.917575836181641,36.995819091796875,0.015686515826789618
143,1732629433.0107956,1.9368930459022522,7.917575836181641,36.995819091796875,0.0155313460197819
144,1732629433.0237985,1.93601655960083,7.941267013549805,36.995819091796875,0.015814615435907786
145,1732629433.0367506,1.9362410306930542,7.941267013549805,36.995819091796875,0.01640209725276489
146,1732629433.048779,1.9363631010055542,7.9669294357299805,36.995819091796875,0.01631265854411595
147,1732629433.061676,1.9353258609771729,7.9669294357299805,36.995819091796875,0.016188418367415126
148,1732629433.073707,1.9340456128120422,7.991585731506348,36.995819091796875,0.016137434615709892
149,1732629433.0857098,1.9324426651000977,7.991585731506348,36.995819091796875,0.016121912962810854
150,1732629433.098716,1.9299184679985046,8.016190528869629,36.995819091796875,0.015981369472995395
151,1732629433.111521,1.9303452968597412,8.016190528869629,36.995819091796875,0.016064633361209925
152,1732629433.123572,1.9313312768936157,8.040875434875488,36.995819091796875,0.015988256739863302
153,1732629433.1365695,1.932555377483368,8.040875434875488,36.995819091796875,0.016029222085137854
154,1732629433.1495228,1.9362773299217224,8.065408706665039,36.995819091796875,0.016121427103036365
155,1732629433.1623318,1.9383267164230347,8.065408706665039,36.995819091796875,0.01622865748478805
156,1732629433.1753318,1.9409955739974976,8.091022491455078,36.995819091796875,0.01624190980560036
157,1732629433.188316,1.9464823603630066,8.091022491455078,36.995819091796875,0.016331717068253024
158,1732629433.2012942,1.9470526576042175,8.116497039794922,36.995819091796875,0.016327107051877437
159,1732629433.2133663,1.9472132921218872,8.116497039794922,36.995819091796875,0.016322853915275565
160,1732629433.2263415,1.947737455368042,8.142122268676758,36.995819091796875,0.016364760550005523
161,1732629433.2383769,1.948477566242218,8.142122268676758,36.995819091796875,0.016379489617475824
162,1732629433.2503777,1.9482645392417908,8.166845321655273,36.995819091796875,0.016188078981127403
163,1732629433.2631798,1.946851134300232,8.166845321655273,36.995819091796875,0.01614702670558041
164,1732629433.2752328,1.9458406567573547,8.190568923950195,36.995819091796875,0.016033689413521398
165,1732629433.2881932,1.9463582634925842,8.190568923950195,36.995819091796875,0.01592922995303903
166,1732629433.3002298,1.9470356106758118,8.215102195739746,36.995819091796875,0.015788383485956497
167,1732629433.3131926,1.9477272629737854,8.215102195739746,36.995819091796875,0.015750252282247103
168,1732629433.3252149,1.9482346773147583,8.239774703979492,36.995819091796875,0.01554169482793673
169,1732629433.338214,1.949205219745636,8.239774703979492,36.995819091796875,0.01538388056432841
170,1732629433.3502283,1.949194073677063,8.264435768127441,36.995819091796875,0.015400953292479851
171,1732629433.36318,1.9478692412376404,8.264435768127441,36.995819091796875,0.015433959953156775
172,1732629433.3751817,1.9457401633262634,8.289124488830566,36.995819091796875,0.015782568864972292
173,1732629433.3871818,1.941311001777649,8.289124488830566,36.995819091796875,0.0162119659152188
174,1732629433.3991935,1.9383621215820312,8.313754081726074,36.995819091796875,0.01724110345094425
175,1732629433.4121652,1.9353491067886353,8.313754081726074,36.995819091796875,0.018676996678552233
176,1732629433.4251194,1.9327367544174194,8.337453842163086,36.995819091796875,0.01865075289497483
177,1732629433.437131,1.927997350692749,8.337453842163086,36.995819091796875,0.018289368775841967
178,1732629433.4491317,1.926817238330841,8.363043785095215,36.995819091796875,0.017950517656526603
179,1732629433.4620566,1.9257584810256958,8.363043785095215,36.995819091796875,0.01795666684698013
180,1732629433.4750385,1.9244042038917542,8.38674545288086,36.995819091796875,0.018151871293702257
181,1732629433.4870732,1.922092318534851,8.38674545288086,36.995819091796875,0.01843379070304501
182,1732629433.5000725,1.9218581914901733,8.412315368652344,36.995819091796875,0.018808597184205064
183,1732629433.5125628,1.92327880859375,8.412315368652344,36.995819091796875,0.019223632014081487
184,1732629433.5255167,1.9259485602378845,8.437024116516113,36.995819091796875,0.019639610622482546
185,1732629433.537528,1.9332396984100342,8.437024116516113,36.995819091796875,0.020014499872169238
186,1732629433.5505707,1.9347413182258606,8.462139129638672,36.995819091796875,0.02042357701740385
187,1732629433.5635157,1.9331060647964478,8.462139129638672,36.995819091796875,0.02086035735471595
188,1732629433.5755281,1.9291895031929016,8.486867904663086,36.995819091796875,0.021375737655730982
189,1732629433.58757,1.9204791188240051,8.486867904663086,36.995819091796875,0.021840987900112813
190,1732629433.6005294,1.9165953993797302,8.51150131225586,36.995819091796875,0.021408591947747538
191,1732629433.6133573,1.9132241010665894,8.51150131225586,36.995819091796875,0.021109684659653846
192,1732629433.6263518,1.9101586937904358,8.536178588867188,36.995819091796875,0.020478496495140143
193,1732629433.638364,1.904506802558899,8.536178588867188,36.995819091796875,0.019862834700869813
194,1732629433.6504009,1.902785301208496,8.561665534973145,36.995819091796875,0.01938024007284101
195,1732629433.6630514,1.9015144109725952,8.561665534973145,36.995819091796875,0.018940509662808087
196,1732629433.6750998,1.8998836278915405,8.585402488708496,36.995819091796875,0.018650141221983232
197,1732629433.6880639,1.8930546045303345,8.585402488708496,36.995819091796875,0.018449987087580264
198,1732629433.7000854,1.8880147337913513,8.609781265258789,36.995819091796875,0.018454817598103912
199,1732629433.7126312,1.8832966685295105,8.609781265258789,36.995819091796875,0.018561851567065208
200,1732629433.725631,1.8796287775039673,8.634442329406738,36.995819091796875,0.018196842840494654
201,1732629433.737631,1.8745191097259521,8.634442329406738,36.995819091796875,0.017995134834511824
202,1732629433.7496622,1.8731454014778137,8.659656524658203,36.995819091796875,0.017530330280122533
203,1732629433.761697,1.8721017241477966,8.659656524658203,36.995819091796875,0.01707797053202156
204,1732629433.7736971,1.8710429668426514,8.68337631225586,36.995819091796875,0.01667418480510262
205,1732629433.786697,1.870582938194275,8.68337631225586,36.995819091796875,0.01641769432063175
