,Time,Force,GoalForce,Pos,k
0,0.037975311279296875,0.2668659090995788,0.2563478648662567,35.59406661987305,0.04
1,0.05097484588623047,0.2710061371326446,0.2563478648662567,35.601314544677734,0.04
2,0.06302785873413086,0.2748132944107055,0.2789754271507263,35.60862350463867,0.04
3,0.07601737976074219,0.2783800363540649,0.2789754271507263,35.61661529541016,0.04
4,0.08900833129882812,0.2878525704145431,0.3036711812019348,35.633758544921875,0.04
5,0.1019749641418457,0.2944018989801407,0.3036711812019348,35.64250183105469,0.04
6,0.11597299575805664,0.3014201521873474,0.3292816579341888,35.651302337646484,0.04
7,0.12801766395568848,0.3162176012992859,0.3292816579341888,35.67051696777344,0.04
8,0.1410083770751953,0.3233717232942581,0.3558623194694519,35.680355072021484,0.04
9,0.15302252769470215,0.3306072503328323,0.3558623194694519,35.689788818359375,0.04
10,0.16597557067871094,0.3377058804035187,0.3805413842201233,35.69951248168945,0.04
11,0.17802000045776367,0.3498082906007767,0.3805413842201233,35.7194709777832,0.04
12,0.1910088062286377,0.3558314740657806,0.4051530063152313,35.729366302490234,0.04
13,0.20301294326782227,0.3629223704338074,0.4051530063152313,35.739200592041016,0.04
14,0.21527934074401855,0.3710859268903732,0.429829478263855,35.74978256225586,0.04
15,0.22802734375,0.389534518122673,0.429829478263855,35.77066802978516,0.04
16,0.24097537994384766,0.398460790514946,0.4537543356418609,35.78038787841797,0.04
17,0.25397419929504395,0.4070053994655609,0.4537543356418609,35.79097366333008,0.04
18,0.26696300506591797,0.4223360568284988,0.4790841937065124,35.812599182128906,0.04
19,0.2789747714996338,0.4293763637542724,0.4790841937065124,35.822723388671875,0.04
20,0.2919740676879883,0.4356106519699096,0.5047019720077515,35.8325080871582,0.04
21,0.3039743900299072,0.4410524070262909,0.5047019720077515,35.84309005737305,0.04
22,0.3160085678100586,0.4517688155174255,0.529356837272644,35.86414337158203,0.04
23,0.3280298709869385,0.4580132067203522,0.529356837272644,35.87409591674805,0.04
24,0.34101438522338867,0.465475931763649,0.5530490279197693,35.884620666503906,0.04
25,0.3530147075653076,0.4736414700746536,0.5530490279197693,35.89583969116211,0.04
26,0.36604952812194824,0.4819763749837875,0.5776987671852112,35.907230377197266,0.0371394521221518
27,0.37998199462890625,0.5016224086284637,0.5776987671852112,35.92948913574219,0.0345873605065047
28,0.3920145034790039,0.5129316747188568,0.6023773550987244,35.94139862060547,0.0323308689536899
29,0.40497398376464844,0.5249082148075104,0.6023773550987244,35.95405578613281,0.0302974991329535
30,0.4169938564300537,0.5489578545093536,0.6279725432395935,35.97953796386719,0.0283387115071438
31,0.4299759864807129,0.5616617500782013,0.6279725432395935,35.9932861328125,0.0266038196209272
32,0.4429748058319092,0.5747821629047394,0.652596116065979,36.00743865966797,0.0249607207482934
33,0.4559752941131592,0.5879586637020111,0.652596116065979,36.02446365356445,0.0234920051341545
34,0.4679758548736572,0.6193854808807373,0.6782070994377136,36.05880355834961,0.0220614741537236
35,0.4809741973876953,0.6388112008571625,0.6782070994377136,36.0775032043457,0.0205697292444792
36,0.4929988384246826,0.6598091423511505,0.7028520703315735,36.09476089477539,0.0190634060542452
37,0.5059802532196045,0.6811536550521851,0.7028520703315735,36.1142578125,0.0176638321946413
38,0.518974781036377,0.7248019874095917,0.7275186777114868,36.15038299560547,0.016386731070982
39,0.5310096740722656,0.7468352019786835,0.7275186777114868,36.1702880859375,0.0152459071563541
40,0.543020486831665,0.7695818543434143,0.7531249523162842,36.189849853515625,0.0142194914563917
41,0.5560076236724854,0.7933927476406097,0.7531249523162842,36.213375091552734,0.0132865731822928
42,0.56801438331604,0.8467752635478973,0.7768279910087585,36.2561149597168,0.0124207919846458
43,0.5809628963470459,0.8740301728248596,0.7768279910087585,36.27716827392578,0.0116194877838775
44,0.5939633846282959,0.9002398252487183,0.8014659285545349,36.29822540283203,0.010880577896075
45,0.605994701385498,0.9506866931915284,0.8014659285545349,36.343204498291016,0.0101980406797259
46,0.6190435886383057,0.9764029383659364,0.8270451426506042,36.36621475219727,0.0096762549324032
47,0.6319756507873535,1.002600610256195,0.8270451426506042,36.38663864135742,0.0091996227936324
48,0.644019603729248,1.0292610824108124,0.851768434047699,36.40435409545898,0.0089710017039367
49,0.6570072174072266,1.0781327486038208,0.851768434047699,36.4403076171875,0.0086877521680881
50,0.6690082550048828,1.0983332395553589,0.8763887286186218,36.45693206787109,0.0087535164071998
51,0.6819992065429688,1.1167733073234558,0.8763887286186218,36.47320938110352,0.0087377268878115
52,0.6949970722198486,1.1342430114746094,0.9010214805603028,36.48805236816406,0.009041744494363
53,0.7070322036743164,1.1672418117523191,0.9010214805603028,36.51554870605469,0.0092772308764675
54,0.7199761867523193,1.1828036308288574,0.9266401529312134,36.52740097045898,0.009950878585382
55,0.7320170402526855,1.1966723203659058,0.9266401529312134,36.53775405883789,0.0105742211177978
56,0.7450029850006104,1.2080827355384829,0.9512633681297302,36.5459213256836,0.0118672811643809
57,0.7579810619354248,1.2217127084732056,0.9512633681297302,36.56254577636719,0.0129550553029653
58,0.7709755897521973,1.2247517704963684,0.9759336709976196,36.57014083862305,0.0145948974787483
59,0.7830173969268799,1.2272818088531494,0.9759336709976196,36.57779312133789,0.0159757225363811
60,0.7960147857666016,1.230127036571503,1.0015366077423096,36.58452224731445,0.0176938534810567
61,0.8089940547943115,1.2385819554328918,1.0015366077423096,36.59775161743164,0.0192189673514149
62,0.8210041522979736,1.2432895302772522,1.0262192487716677,36.6041374206543,0.0209645406840129
63,0.8340005874633789,1.2470948696136477,1.0262192487716677,36.60983276367188,0.0224871104006067
64,0.8469984531402588,1.2540118098258972,1.0508527755737305,36.62087631225586,0.0231663937161054
65,0.859973669052124,1.2576385736465454,1.0508527755737305,36.62599563598633,0.0238233939370232
66,0.8719744682312012,1.2608363628387451,1.076476812362671,36.63100051879883,0.0245680010075018
67,0.8849740028381348,1.263684332370758,1.076476812362671,36.635887145996094,0.0254151631076317
68,0.8969748020172119,1.2687528729438782,1.1010971069335938,36.64607238769531,0.0263893138926489
69,0.9090263843536377,1.2718429565429688,1.1010971069335938,36.650787353515625,0.0273226427192625
70,0.9220163822174072,1.2751752734184263,1.125741481781006,36.65544891357422,0.0282809851755324
71,0.9350101947784424,1.2787177562713623,1.125741481781006,36.6602783203125,0.0291541764011642
72,0.9479990005493164,1.2865023016929626,1.1504263877868652,36.66977310180664,0.0301248180601591
73,0.9600319862365723,1.2906612753868103,1.1504263877868652,36.67420196533203,0.0309746445924277
74,0.9730148315429688,1.294888615608215,1.1760387420654297,36.6783447265625,0.0319676554241986
75,0.9859757423400879,1.2982564568519592,1.1760387420654297,36.68277359008789,0.0328775280898104
76,0.9979963302612305,1.30380779504776,1.2006984949111938,36.6921501159668,0.0338820033537111
77,1.01005220413208,1.3075201511383057,1.2006984949111938,36.696922302246094,0.034793187001356
78,1.0230534076690674,1.3121737837791445,1.225324273109436,36.701698303222656,0.0356844030937628
79,1.0369749069213867,1.3233559727668762,1.225324273109436,36.71158981323242,0.0365207318771848
80,1.0500054359436035,1.329623103141785,1.250024437904358,36.71636581420898,0.0370044092961224
81,1.0629746913909912,1.3357442617416382,1.250024437904358,36.72068405151367,0.0368164097334211
82,1.074974775314331,1.3409331440925598,1.275576114654541,36.72499465942383,0.0367942726670442
83,1.0879790782928467,1.3501014709472656,1.275576114654541,36.73569488525391,0.0368003436379497
84,1.100975513458252,1.3557958602905271,1.301206350326538,36.74127197265625,0.0370850455867825
85,1.11297607421875,1.3625245094299316,1.301206350326538,36.74697113037109,0.037524519900165
86,1.1259629726409912,1.3703705072402954,1.3258514404296875,36.75254821777344,0.0379426697251338
87,1.1379799842834473,1.3873759508132937,1.3258514404296875,36.76342010498047,0.0383830288967911
88,1.1509757041931152,1.3947566747665403,1.351468563079834,36.768367767333984,0.0388665917445502
89,1.1639738082885742,1.4012815356254578,1.351468563079834,36.77348709106445,0.0393581083055688
90,1.1759943962097168,1.4123036861419678,1.3761249780654907,36.78442001342773,0.0386888424876052
91,1.1889631748199463,1.418822705745697,1.3761249780654907,36.78971099853516,0.0381957995435045
92,1.2009754180908203,1.426053822040558,1.4007877111434937,36.79534530639648,0.0373424976355236
93,1.2130074501037598,1.43366539478302,1.4007877111434937,36.80104446411133,0.0366311190384389
94,1.225968599319458,1.441263198852539,1.425412654876709,36.80656433105469,0.0363371671311046
95,1.238011360168457,1.456762671470642,1.425412654876709,36.81795501708984,0.0359981463317858
96,1.2512378692626953,1.464633584022522,1.450049638748169,36.82445526123047,0.0355391485361564
97,1.2639801502227783,1.473053216934204,1.450049638748169,36.831298828125,0.0351473312409199
98,1.2769732475280762,1.491037666797638,1.4749592542648315,36.84453201293945,0.033795408718122
99,1.2890167236328125,1.50118750333786,1.4749592542648315,36.851261138916016,0.0329466279780861
100,1.302011251449585,1.5117098689079285,1.5003280639648438,36.857418060302734,0.0320927887948748
101,1.3149845600128174,1.5224410891532898,1.5003280639648438,36.86403274536133,0.0314770264737961
102,1.327974796295166,1.542239248752594,1.5250232219696045,36.877838134765625,0.0310660334658465
103,1.3400514125823975,1.552332639694214,1.5250232219696045,36.884796142578125,0.0307396390421844
104,1.3530035018920898,1.563182294368744,1.5506033897399902,36.891876220703125,0.0303380933448962
105,1.3650686740875244,1.5744038820266724,1.5506033897399902,36.89900970458984,0.0299016024138294
106,1.3790035247802734,1.5955243706703186,1.5752869844436646,36.912296295166016,0.0295378573282744
107,1.391979455947876,1.6046105027198792,1.5752869844436646,36.91913986206055,0.0292427920962142
108,1.404975414276123,1.6134207844734192,1.6009052991867063,36.92517852783203,0.0291385157330126
109,1.417975664138794,1.6315546035766602,1.6009052991867063,36.93858337402344,0.0290937650284133
110,1.4309742450714111,1.6400834918022156,1.62650728225708,36.94508361816406,0.0291678630707527
111,1.442978858947754,1.648033320903778,1.62650728225708,36.95146942138672,0.0291174397302745
112,1.4559757709503174,1.6657594442367554,1.652135968208313,36.96579360961914,0.0283373221397172
113,1.468015432357788,1.6973596215248108,1.652135968208313,36.97304153442383,0.0275059271281753
114,1.4809746742248535,1.789071261882782,1.6767812967300415,36.979942321777344,0.0263809255593234
115,1.4930520057678223,1.905895471572876,1.6767812967300415,36.98419952392578,0.0254110412821067
116,1.5070109367370605,1.9762768745422363,1.701424241065979,36.98506546020508,0.024695169398924
117,1.5190150737762451,1.880225419998169,1.701424241065979,36.98500442504883,0.0242221525040928
118,1.5319745540618896,1.7582353353500366,1.7270896434783936,36.98770904541016,0.0241508640254435
119,1.5439813137054443,1.6338924169540403,1.7270896434783936,36.99547576904297,0.024283620073339
120,1.5563366413116455,1.5291792154312134,1.7516978979110718,37.025672912597656,0.0233522906524903
121,1.5689735412597656,1.5886447429656982,1.7516978979110718,37.04241561889648,0.0223438465444415
122,1.5809757709503174,1.6828531622886658,1.7757128477096558,37.05805969238281,0.0211811847886297
123,1.5939760208129883,1.7763769030570984,1.7757128477096558,37.07048797607422,0.0202143588946032
124,1.6069622039794922,1.8869300484657288,1.8000012636184692,37.086708068847656,0.0194908186154753
125,1.6190180778503418,1.8988176584243772,1.8000012636184692,37.09332275390625,0.0187602188608519
126,1.6319756507873535,1.8990955352783203,1.82561719417572,37.10051345825195,0.0181783913229231
127,1.6449954509735107,1.8950477242469788,1.82561719417572,37.10862731933594,0.0175954453189067
128,1.6579737663269043,1.8963457345962524,1.850274682044983,37.127723693847656,0.0170377597173057
129,1.6699745655059814,1.906592607498169,1.850274682044983,37.13784790039063,0.0164868110568824
130,1.6820080280303955,1.921499788761139,1.875902533531189,37.14854431152344,0.0159670736813398
131,1.6949748992919922,1.9395257830619808,1.875902533531189,37.15993881225586,0.0155070310800241
132,1.7070116996765137,1.976975917816162,1.89959454536438,37.17863082885742,0.0151191298412353
133,1.7190155982971191,1.9923983812332156,1.89959454536438,37.18732070922852,0.0147664448690775
134,1.7319746017456055,2.004491031169892,1.9242421388626096,37.194969177246094,0.0144484221031394
135,1.7440333366394043,2.0138978958129883,1.9242421388626096,37.20330810546875,0.0141524685478324
136,1.756974458694458,2.028189957141876,1.948849439620972,37.21924591064453,0.0139069325787825
137,1.769010305404663,2.035281717777252,1.948849439620972,37.22747039794922,0.013686713239223
138,1.7820115089416504,2.043140649795532,1.9734933376312256,37.236270904541016,0.0135502162335845
139,1.794032096862793,2.0529653429985046,1.9734933376312256,37.24576568603516,0.0134174297608613
140,1.8069696426391602,2.0786508917808533,1.998173832893372,37.26440048217773,0.01332533029312
141,1.8190171718597412,2.0928021669387817,1.998173832893372,37.27412414550781,0.013247572359539
142,1.8320112228393555,2.107069611549377,2.0227766036987305,37.28384399414063,0.0132222715374204
143,1.8449625968933105,2.122245073318481,2.0227766036987305,37.2935676574707,0.0131972701868152
144,1.8570270538330078,2.158703684806824,2.04746150970459,37.30996322631836,0.0132380122933449
145,1.8700146675109863,2.1781681776046757,2.04746150970459,37.31692123413086,0.0132681356923576
146,1.8829944133758545,2.1947579383850098,2.0721211433410645,37.32318878173828,0.0133431758707877
147,1.89597487449646,2.205712914466858,2.0721211433410645,37.32900238037109,0.0134151240789398
148,1.9080114364624023,2.2096163034439087,2.0977187156677246,37.33935546875,0.013821628892735
149,1.920975923538208,2.205749273300171,2.0977187156677246,37.34522247314453,0.0142989040502745
150,1.933974027633667,2.2015511989593506,2.122379302978516,37.35120391845703,0.0149829236646448
151,1.9469695091247559,2.1992743015289307,2.122379302978516,37.366966247558594,0.0157391250190098
152,1.958974838256836,2.20290756225586,2.1479721069335938,37.375770568847656,0.0169395254230761
153,1.9710042476654053,2.211459159851074,2.1479721069335938,37.38497161865234,0.0181262908810016
154,1.9830255508422852,2.225164890289306,2.172616958618164,37.39319610595703,0.0192093491271409
155,1.9959697723388672,2.237994432449341,2.172616958618164,37.400390625,0.0202927466599887
156,2.008000135421753,2.273334503173828,2.1963250637054443,37.41373443603516,0.0207442646207284
157,2.0209877490997314,2.286853075027466,2.1963250637054443,37.41965866088867,0.0212496530993465
158,2.0329928398132324,2.294998049736023,2.220944166183472,37.42501068115234,0.0217331921220139
159,2.0450081825256348,2.297945022583008,2.220944166183472,37.43099212646485,0.0221771992886348
160,2.0579757690429688,2.302742481231689,2.245580673217773,37.44192123413086,0.0227012613544718
161,2.0700151920318604,2.312224507331848,2.245580673217773,37.44709777832031,0.0231577062946429
162,2.083019733428955,2.3267202377319336,2.2702078819274902,37.4521598815918,0.0236856874235156
163,2.095961570739746,2.34424889087677,2.2702078819274902,37.46211242675781,0.0241093664384797
164,2.1079633235931396,2.338045358657837,2.2948951721191406,37.466827392578125,0.0249462570861203
165,2.1200075149536133,2.324162006378174,2.2948951721191406,37.47212219238281,0.0254414668558737
166,2.1339972019195557,2.3097742795944214,2.319483757019043,37.47810363769531,0.0259688328247101
167,2.1469733715057373,2.3009045124053955,2.319483757019043,37.490699768066406,0.0265468974895028
168,2.1590003967285156,2.307552933692932,2.345146894454956,37.49760437011719,0.0270630872982813
169,2.1719751358032227,2.3185538053512573,2.345146894454956,37.50468063354492,0.0276423702452844
170,2.1849746704101562,2.3307158946990967,2.3697938919067383,37.5113525390625,0.0282818236781
171,2.197052240371704,2.353372097015381,2.3697938919067383,37.52544403076172,0.0290262092351471
172,2.2099769115448,2.365029454231262,2.3953981399536133,37.53194808959961,0.0298207794904311
173,2.222973108291626,2.3761802911758423,2.3953981399536133,37.53873443603516,0.0305755149078011
174,2.2350215911865234,2.3863571882247925,2.420044422149658,37.54581069946289,0.0312451655344641
175,2.2479631900787354,2.406483054161072,2.420044422149658,37.559268951416016,0.0318374802627988
176,2.260030508041382,2.4163769483566284,2.444732666015625,37.56600189208984,0.032346309270754
177,2.2729744911193848,2.425450205802917,2.444732666015625,37.572383880615234,0.0327892163809787
178,2.285975933074951,2.433466672897339,2.4693851470947266,37.578311920166016,0.0332068388387546
179,2.2980117797851562,2.4480817317962646,2.4693851470947266,37.59177017211914,0.0335966018341468
180,2.3109772205352783,2.455607891082764,2.4949610233306885,37.59827423095703,0.034038556069358
181,2.3230226039886475,2.4643378257751465,2.4949610233306885,37.60448455810547,0.0344769961686943
182,2.3360040187835693,2.473293900489807,2.519606351852417,37.61069869995117,0.0349865997927201
183,2.3489632606506348,2.4878501892089844,2.519606351852417,37.62300491333008,0.0355024921980631
184,2.361030101776123,2.494279384613037,2.544276475906372,37.629337310791016,0.0360515267181812
185,2.374013662338257,2.5007107257843018,2.544276475906372,37.63618087768555,0.0365459748084919
186,2.3870186805725098,2.514451146125793,2.568946123123169,37.649356842041016,0.0359651739575484
187,2.39996337890625,2.5228381156921387,2.568946123123169,37.656028747558594,0.0356985508809702
188,2.4119741916656494,2.5316661596298218,2.594564914703369,37.662353515625,0.0352893475660875
189,2.423976421356201,2.540935516357422,2.594564914703369,37.66839599609375,0.035079267975914
190,2.4360148906707764,2.557105302810669,2.6191647052764893,37.6821403503418,0.0350302102630385
191,2.449012041091919,2.564365863800049,2.6191647052764893,37.68962097167969,0.0350369312582953
192,2.461021661758423,2.572676539421081,2.642863273620605,37.69698333740234,0.034780012284387
193,2.474015712738037,2.582378506660461,2.642863273620605,37.70452117919922,0.0343108464461585
194,2.4870080947875977,2.605831980705261,2.667513847351074,37.717750549316406,0.0337679948298949
195,2.499974489212036,2.6163700819015503,2.667513847351074,37.7245979309082,0.0332639993404285
196,2.513014078140259,2.625341892242432,2.6931302547454834,37.73149871826172,0.0330470373786929
197,2.525975465774536,2.6406443119049072,2.6931302547454834,37.74582290649414,0.0329004101208546
198,2.5389740467071533,2.648663282394409,2.7187659740448,37.75307083129883,0.0329612435178487
199,2.5519769191741943,2.657628059387207,2.7187659740448,37.759742736816406,0.0328746370622392
200,2.564002513885498,2.6668354272842407,2.744356155395508,37.76658630371094,0.0328386223747321
201,2.576974391937256,2.6836754083633423,2.744356155395508,37.7825813293457,0.0328403290898193
202,2.589974880218506,2.6934547424316406,2.7690279483795166,37.79080581665039,0.0328478226176431
203,2.6019835472106934,2.705164194107056,2.7690279483795166,37.79880142211914,0.0328794107536849
204,2.614006996154785,2.718334197998047,2.794630527496338,37.80622100830078,0.0330957955003122
205,2.6260135173797607,2.743554949760437,2.794630527496338,37.822731018066406,0.0335258135986631
206,2.63897442817688,2.7554744482040405,2.818320274353028,37.83072662353516,0.0340790873580252
207,2.6510510444641113,2.7668384313583374,2.818320274353028,37.83895492553711,0.0346173179131515
208,2.664008378982544,2.7774832248687744,2.8429324626922607,37.846317291259766,0.0350584263636262
209,2.6770541667938232,2.797728180885315,2.8429324626922607,37.86173629760742,0.0353826575011245
