,Time,Force,GoalForce,Pos,k
0,0.12506508827209473,0.2868841886520386,0.3173850774765014,34.53982162475586,0.04
1,0.13801193237304688,0.2919543236494064,0.3173850774765014,34.54816055297852,0.04
2,0.15004849433898926,0.2969186007976532,0.3420739471912384,34.557132720947266,0.04
3,0.16301298141479492,0.3016464412212372,0.3420739471912384,34.566162109375,0.04
4,0.17504477500915527,0.3116796016693115,0.3667208850383758,34.58399963378906,0.04
5,0.1880505084991455,0.3180141150951385,0.3667208850383758,34.59251403808594,0.04
6,0.20101308822631836,0.3238661885261535,0.3913805782794952,34.60165786743164,0.04
7,0.21305179595947266,0.3348300755023956,0.3913805782794952,34.62052536010742,0.04
8,0.22603583335876465,0.3404750972986221,0.4169992208480835,34.63042068481445,0.04
9,0.2390131950378418,0.3462516814470291,0.4169992208480835,34.640316009521484,0.04
10,0.2520015239715576,0.3527147173881531,0.4416849911212921,34.65066909790039,0.04
11,0.2640221118927002,0.3674387037754059,0.4416849911212921,34.67143630981445,0.04
12,0.2760767936706543,0.3750334978103637,0.4673010110855102,34.681617736816406,0.04
13,0.2890141010284424,0.38176329433918,0.4673010110855102,34.69208526611328,0.04
14,0.3020002841949463,0.3869195133447647,0.4910518527030945,34.701751708984375,0.04
15,0.31403470039367676,0.3963794857263565,0.4910518527030945,34.72200012207031,0.04
16,0.32801151275634766,0.4019143432378769,0.5166265368461609,34.73200607299805,0.04
17,0.3400561809539795,0.4078263342380523,0.5166265368461609,34.74224853515625,0.04
18,0.35304760932922363,0.4140460193157196,0.536416232585907,34.75300216674805,0.04
19,0.3650779724121094,0.427052691578865,0.5620498657226562,34.77394104003906,0.0372940834276378
20,0.3780694007873535,0.4341521710157394,0.5620498657226562,34.78602600097656,0.0349131769943982
21,0.39101409912109375,0.4415941536426544,0.5620498657226562,34.79793167114258,0.0325778855130449
22,0.4030416011810303,0.457507461309433,0.5916712284088135,34.822322845458984,0.0302802032712437
23,0.4160134792327881,0.4659562259912491,0.5916712284088135,34.83612823486328,0.0280152681026611
24,0.4290130138397217,0.4748114049434662,0.6163071990013123,34.85114288330078,0.0260394211534041
25,0.4410433769226074,0.4846987873315811,0.6163071990013123,34.86678695678711,0.0242476823820214
26,0.4540135860443115,0.5064253956079483,0.6419288516044617,34.902626037597656,0.0225742444747871
27,0.4660336971282959,0.5191779732704163,0.6419288516044617,34.921146392822266,0.0210023334193992
28,0.47901391983032227,0.5339491367340088,0.6665927767753601,34.941856384277344,0.0195165450820715
29,0.4910142421722412,0.5500968992710114,0.6665927767753601,34.962738037109375,0.0180967214919082
30,0.5040013790130615,0.5842880010604858,0.6912564635276794,35.00582504272461,0.0167391691532241
31,0.5160396099090576,0.6020466089248657,0.6912564635276794,35.029579162597656,0.0154668167391276
32,0.5290389060974121,0.6210399270057678,0.7159076929092407,35.05466079711914,0.0142991198136007
33,0.5420012474060059,0.6410865485668182,0.7159076929092407,35.081581115722656,0.0132451530929889
34,0.5540347099304199,0.6846021711826324,0.7406078577041626,35.135597229003906,0.0122769330228703
35,0.5670356750488281,0.7079285383224487,0.7406078577041626,35.16556930541992,0.0113788403443921
36,0.5790374279022217,0.732732504606247,0.765267014503479,35.196632385253906,0.0105461450831528
37,0.5910594463348389,0.7592441439628601,0.765267014503479,35.22850036621094,0.0097765831528025
38,0.6040143966674805,0.8133527636528015,0.7899330854415894,35.28999328613281,0.0090635310898349
39,0.6160550117492676,0.8400733172893524,0.7899330854415894,35.322322845458984,0.0084009945288785
40,0.6290013790130615,0.8677490949630737,0.8145736455917358,35.356204986572266,0.0077973355259437
41,0.6410493850708008,0.8960898220539093,0.8145736455917358,35.38956832885742,0.0072455379115139
42,0.653101921081543,0.9523663520812988,0.8392243981361389,35.45433807373047,0.006751779870757
43,0.6660943031311035,0.9803929328918456,0.8392243981361389,35.48724365234375,0.0062976429847123
44,0.6790952682495117,1.008303701877594,0.8630001544952393,35.519344329833984,0.0059026082966246
45,0.6911060810089111,1.036697506904602,0.8630001544952393,35.54885482788086,0.0055401750690282
46,0.7041075229644775,1.089118778705597,0.8886435031890869,35.60465240478516,0.0052520874100811
47,0.7181396484375,1.1114750504493711,0.8886435031890869,35.630653381347656,0.0049759305305379
48,0.7301509380340576,1.132101058959961,0.913318932056427,35.65510177612305,0.0048032668433724
49,0.7430951595306396,1.1508992910385132,0.913318932056427,35.679893493652344,0.0046157223185573
50,0.7560839653015137,1.1844161748886108,0.9390116930007936,35.72320938110352,0.0045849519234753
51,0.7690958976745605,1.1982761025428772,0.9390116930007936,35.74403381347656,0.0045211247421226
52,0.7820956707000732,1.2111383080482483,0.9645954966545104,35.76071548461914,0.0046447085723508
53,0.7940967082977295,1.235060214996338,0.9645954966545104,35.795631408691406,0.0047462016055192
54,0.807084321975708,1.2444267868995669,0.9902569055557252,35.81041717529297,0.0056754597947782
55,0.8190960884094238,1.2516462802886963,0.9902569055557252,35.82525634765625,0.0064957135327862
56,0.8320846557617188,1.2578505277633667,1.014909029006958,35.83837127685547,0.0077673306383079
57,0.8441734313964844,1.2680228352546692,1.014909029006958,35.862300872802734,0.0087870385409045
58,0.857109785079956,1.272293746471405,1.0395727157592771,35.87271499633789,0.0101427142614705
59,0.8700973987579346,1.2753429412841797,1.0395727157592771,35.88243865966797,0.011330090333037
60,0.8830957412719727,1.2776254415512085,1.0642610788345337,35.890777587890625,0.0128689116558544
61,0.8961009979248047,1.2788804173469543,1.0642610788345337,35.907169342041016,0.0142481882188718
62,0.9090847969055176,1.2787023782730105,1.0898969173431396,35.914649963378906,0.0159262692985535
63,0.9211270809173584,1.2787092328071594,1.0898969173431396,35.92218780517578,0.0174220061875224
64,0.9331502914428711,1.279368817806244,1.1155357360839844,35.936622619628906,0.0181207008952058
65,0.9461355209350586,1.2803844809532166,1.1155357360839844,35.944217681884766,0.0186414977426073
66,0.959132194519043,1.28158038854599,1.139277458190918,35.9522705078125,0.0191349009139604
67,0.9721245765686035,1.2837634682655334,1.139277458190918,35.959808349609375,0.0197743336376488
68,0.9851675033569336,1.2920005321502686,1.1649097204208374,35.97585678100586,0.0203888391718512
69,0.9981207847595215,1.2972411513328552,1.1649097204208374,35.98356246948242,0.0209996888651173
70,1.0101244449615479,1.3019383549690249,1.19059419631958,35.99161529541016,0.0216478746411551
71,1.023120403289795,1.306078553199768,1.19059419631958,35.999786376953125,0.0222374835634841
72,1.0360958576202393,1.3146322965621948,1.215215086936951,36.01520538330078,0.0227742392070246
73,1.0481181144714355,1.3190012574195862,1.215215086936951,36.022220611572266,0.0232392911163407
74,1.0611581802368164,1.322654664516449,1.2408367395401,36.02901077270508,0.0237161384416315
75,1.0741355419158936,1.328582942485809,1.2408367395401,36.04373550415039,0.0242206485697055
76,1.087095022201538,1.3317758440971377,1.265561580657959,36.050811767578125,0.0245540267194889
77,1.0991172790527344,1.336999595165253,1.265561580657959,36.05811309814453,0.024494060960315
78,1.1121108531951904,1.34795880317688,1.2911491394042969,36.06438446044922,0.0245115484329185
79,1.1250944137573242,1.3842718601226809,1.2911491394042969,36.07617950439453,0.0247517172722925
80,1.1371307373046875,1.400762915611267,1.3158280849456787,36.08250427246094,0.0252930729146816
81,1.1491327285766602,1.411422848701477,1.3158280849456787,36.08860397338867,0.0259403318365828
82,1.1621243953704834,1.41730797290802,1.3405109643936155,36.09476089477539,0.0268370364785566
83,1.175095796585083,1.4246846437454224,1.3405109643936155,36.1082763671875,0.0277915928972102
84,1.187096118927002,1.430042803287506,1.3651678562164309,36.11454772949219,0.0288864199858013
85,1.1990971565246582,1.4382301568984983,1.3651678562164309,36.121219635009766,0.0299328609890732
86,1.212094783782959,1.448076844215393,1.3898036479949951,36.12835311889648,0.0309330313283497
87,1.2241361141204834,1.4657142162322998,1.3898036479949951,36.14152908325195,0.031889508787837
88,1.2370967864990234,1.4729854464530945,1.4144656658172607,36.147796630859375,0.0327792013055501
89,1.250089168548584,1.4800891280174255,1.4144656658172607,36.15354919433594,0.0335806100249068
90,1.262105941772461,1.488234519958496,1.4391310214996338,36.15884017944336,0.0342660811853208
91,1.2750937938690186,1.5099875926971436,1.4391310214996338,36.16919708251953,0.0348161880503712
92,1.2870967388153076,1.5244866609573364,1.4638034105300903,36.17402648925781,0.0354029341933684
93,1.299128532409668,1.539843499660492,1.4638034105300903,36.17839813232422,0.0358722534237107
94,1.3121237754821777,1.552964985370636,1.4884576797485352,36.18236541748047,0.0365563155523957
95,1.3251159191131592,1.56453937292099,1.4884576797485352,36.19099807739258,0.037073490811469
96,1.3371167182922363,1.5624812245368958,1.5131475925445557,36.19536972045898,0.0378541371611492
97,1.350172519683838,1.5572584867477417,1.5131475925445557,36.19962310791016,0.0385824554164174
98,1.363105058670044,1.551251232624054,1.5378040075302124,36.2041130065918,0.039406434491184
99,1.3760960102081299,1.5433476567268372,1.5378040075302124,36.21544647216797,0.0402999814256191
100,1.388131856918335,1.5437722206115725,1.563442349433899,36.22142791748047,0.0409703470829868
101,1.4011213779449463,1.5483304858207705,1.563442349433899,36.227352142333984,0.0414555211422214
102,1.4131512641906738,1.5676323771476746,1.58813214302063,36.24011993408203,0.04003552160925
103,1.4261372089385986,1.5802170634269714,1.58813214302063,36.2461051940918,0.0391086488941281
104,1.4391188621520996,1.5925143957138062,1.6128146648406982,36.25202941894531,0.0384358394872221
105,1.4511332511901855,1.604097545146942,1.6128146648406982,36.25864791870117,0.0382754306850796
106,1.4633982181549072,1.6274693012237549,1.6384326219558716,36.271934509277344,0.0382282343528835
107,1.476095199584961,1.6407832503318789,1.6384326219558716,36.27854919433594,0.0383995978852065
108,1.4880952835083008,1.6556029915809631,1.6623849868774414,36.28522109985352,0.0384209238427834
109,1.501084327697754,1.6703642010688782,1.6623849868774414,36.291263580322266,0.0382764074597916
110,1.5130844116210938,1.6933054327964785,1.6867495775222778,36.30253601074219,0.0383098620975757
111,1.5251753330230713,1.7009546756744385,1.6867495775222778,36.30799865722656,0.0382631837253044
112,1.5381386280059814,1.7063830494880676,1.711402177810669,36.313236236572266,0.0386425817541126
113,1.551135540008545,1.710687518119812,1.711402177810669,36.31841278076172,0.0388352489052871
114,1.564084529876709,1.7151293754577637,1.7361189126968384,36.329227447509766,0.0392805456142418
115,1.5761163234710693,1.7151854038238523,1.7361189126968384,36.3343505859375,0.0396634521204942
116,1.5881164073944092,1.7152084112167358,1.761715531349182,36.3394660949707,0.0402001130240005
117,1.6011099815368652,1.7164930701255798,1.761715531349182,36.34498977661133,0.0405869133910694
118,1.614131212234497,1.7257683277130127,1.785423755645752,36.35799026489258,0.0406966695315681
119,1.6270954608917236,1.731413185596466,1.785423755645752,36.364776611328125,0.040761126350794
120,1.6391305923461914,1.7359513640403748,1.81108820438385,36.37208557128906,0.0405005003703539
121,1.6521201133728027,1.740519881248474,1.81108820438385,36.37915802001953,0.0401914360248659
122,1.664583444595337,1.7538999319076538,1.8357510566711424,36.39359664916992,0.0398261994532001
123,1.677548885345459,1.7632960081100464,1.8357510566711424,36.4018783569336,0.039407906345539
124,1.689549207687378,1.7736303806304932,1.86086106300354,36.41010665893555,0.0388254388380164
125,1.7016024589538574,1.783827781677246,1.86086106300354,36.418907165527344,0.038208877820502
126,1.71455979347229,1.8020605444908144,1.8854904174804688,36.43490219116211,0.0375664188969704
127,1.726562738418579,1.8119766116142275,1.8854904174804688,36.44358825683594,0.0370480198718821
128,1.7385916709899902,1.8225904703140257,1.910164475440979,36.451927185058594,0.0366708703241689
129,1.751591682434082,1.8331838846206665,1.910164475440979,36.46061325073242,0.0363445062847683
130,1.7635924816131592,1.8510958552360532,1.9338726997375488,36.476837158203125,0.036114039293982
131,1.7765836715698242,1.858530640602112,1.9338726997375488,36.48558044433594,0.0359082484442509
132,1.7895817756652832,1.8660626411437988,1.9585368633270264,36.49443817138672,0.0357215636997089
133,1.8015871047973633,1.8761597275733948,1.9585368633270264,36.50375747680664,0.0354801342512964
134,1.8145854473114014,1.903902530670166,1.9841761589050293,36.521820068359375,0.0352628447674929
135,1.8275492191314697,1.9183002710342407,1.9841761589050293,36.5314826965332,0.0350133625176446
136,1.839613914489746,1.9317181706428528,2.008843183517456,36.54074478149414,0.0347695899760929
137,1.8525598049163818,1.944254755973816,2.008843183517456,36.550411224365234,0.0344342681249565
138,1.8645603656768799,1.969046771526337,2.033534526824951,36.56853103637695,0.0340882713702845
139,1.8765873908996582,1.9799270033836365,2.033534526824951,36.57784652709961,0.0336900390780742
140,1.8885881900787354,1.9892520308494568,2.058145046234131,36.58659362792969,0.0333308158528901
141,1.9015843868255615,1.9975407123565676,2.058145046234131,36.595970153808594,0.0329230514432875
142,1.9135854244232178,2.011180579662323,2.081849336624145,36.6135139465332,0.0326211191504497
143,1.9265859127044678,2.017233669757843,2.081849336624145,36.62260055541992,0.032365428451237
144,1.9395842552185059,2.0232226252555847,2.1065099239349365,36.63232421875,0.0321726284565361
145,1.951585054397583,2.029836058616638,2.1065099239349365,36.64256286621094,0.0319900383107512
146,1.9636166095733643,2.048846423625946,2.1321587562561035,36.66223907470703,0.0318312591659411
147,1.976595401763916,2.059954881668091,2.1321587562561035,36.67345428466797,0.031616795667772
148,1.989560604095459,2.071648120880127,2.155867576599121,36.684669494628906,0.0313311672438066
149,2.0015783309936523,2.0846407413482666,2.155867576599121,36.69548416137695,0.0309277981500817
150,2.0135843753814697,2.107954680919647,2.181462287902832,36.71648025512695,0.0304021773470336
151,2.0255987644195557,2.1203306317329407,2.181462287902832,36.727294921875,0.0297192067116106
152,2.038559675216675,2.1310919523239136,2.205162286758423,36.73828125,0.028986008931065
153,2.0516016483306885,2.1410279870033264,2.205162286758423,36.74904251098633,0.0281392983068803
154,2.064588785171509,2.162911295890808,2.2298014163970947,36.77302551269531,0.0271530957343977
155,2.0775492191314697,2.176108837127685,2.2298014163970947,36.7851676940918,0.0261544898962499
156,2.0895614624023438,2.19131338596344,2.2554798126220703,36.79672622680664,0.025135048961537
157,2.10160231590271,2.20713484287262,2.2554798126220703,36.809326171875,0.023970589494762
158,2.1145615577697754,2.23863422870636,2.280116319656372,36.833946228027344,0.0228118990900134
159,2.127548933029175,2.254183888435364,2.280116319656372,36.84591293334961,0.0216640233286036
160,2.1395702362060547,2.2701873779296875,2.3047797679901123,36.857818603515625,0.0205322813537252
161,2.151590585708618,2.2860015630722046,2.3047797679901123,36.87076187133789,0.0194356715385495
162,2.1645607948303223,2.3152602910995483,2.3294517993927,36.89578628540039,0.0184407249722819
163,2.177558183670044,2.328043580055237,2.3294517993927,36.90999221801758,0.0175037581481583
164,2.1895599365234375,2.341299057006836,2.3541054725646973,36.92420196533203,0.0166500455520791
165,2.20159649848938,2.3549565076828003,2.3541054725646973,36.9403076171875,0.0158534040234007
166,2.2145605087280273,2.3864582777023315,2.3787682056427,36.97148895263672,0.015103878227459
167,2.2265994548797607,2.404331684112549,2.3787682056427,36.98765182495117,0.0143946468659519
168,2.2395598888397217,2.42236590385437,2.403432130813598,37.00347137451172,0.0137038099519115
169,2.2515604496002197,2.438923716545105,2.403432130813598,37.01934814453125,0.0130199053829194
170,2.2635655403137207,2.4684733152389526,2.4280948638916016,37.05414962768555,0.0123639212071402
171,2.2765607833862305,2.4822914600372314,2.4280948638916016,37.071922302246094,0.0117271682041439
172,2.289579391479492,2.496421694755554,2.451777219772339,37.091426849365234,0.0111049839109974
173,2.3015992641448975,2.509329319000244,2.451777219772339,37.10966110229492,0.010517594508898
174,2.3136000633239746,2.529085636138916,2.47744083404541,37.14618682861328,0.0099874240820006
175,2.3265974521636963,2.534289836883545,2.47744083404541,37.16511154174805,0.0094944723004307
176,2.3395605087280273,2.539025664329529,2.501137971878052,37.18634033203125,0.0090448706924951
177,2.351600408554077,2.545970320701599,2.501137971878052,37.20964050292969,0.0086240282838078
178,2.3645615577697754,2.574968814849853,2.5267488956451416,37.2585334777832,0.0082199689221709
179,2.377560615539551,2.5975955724716187,2.5267488956451416,37.28206253051758,0.0078300358553823
180,2.3895883560180664,2.622263193130493,2.5514132976531982,37.304725646972656,0.007461288183191
181,2.4025604724884033,2.644266128540039,2.5514132976531982,37.32883071899414,0.00710652956263
182,2.4145612716674805,2.6759068965911865,2.57610297203064,37.37461853027344,0.0067879856223235
183,2.4275593757629395,2.6863842010498047,2.57610297203064,37.39728164672852,0.0064834187105852
184,2.4395594596862793,2.696346879005432,2.6007397174835205,37.41965866088867,0.0062110180955879
185,2.452561378479004,2.7062573432922363,2.6007397174835205,37.443302154541016,0.0059537739809306
186,2.4655601978302,2.726625680923462,2.625401258468628,37.49225616455078,0.0057254552567111
187,2.4795942306518555,2.737532377243042,2.625401258468628,37.51779556274414,0.0055047595580241
188,2.4925594329833984,2.749484658241272,2.651051998138428,37.542877197265625,0.0053176019915033
189,2.5045604705810547,2.7714184522628784,2.651051998138428,37.59643173217773,0.0051379522033934
190,2.5175487995147705,2.7812777757644653,2.6767024993896484,37.62438583374024,0.0050697498055611
191,2.5295488834381104,2.7901079654693604,2.6767024993896484,37.65194320678711,0.0050180980126394
192,2.5415899753570557,2.7983299493789677,2.7023403644561768,37.67776870727539,0.00505802435036
193,2.5545825958251953,2.8109627962112427,2.7023403644561768,37.73638916015625,0.0051341851359352
194,2.5665907859802246,2.815958976745605,2.726057767868042,37.76676177978516,0.0052472074342439
195,2.579559803009033,2.821667075157165,2.726057767868042,37.79713439941406,0.0053130467172864
196,2.5925490856170654,2.828305959701538,2.7507216930389404,37.825950622558594,0.0053657730351153
197,2.604595184326172,2.8413788080215454,2.7507216930389404,37.88876724243164,0.0053693559796598
198,2.6166303157806396,2.8453731536865234,2.7763304710388184,37.919429779052734,0.0053927361732113
199,2.6295604705810547,2.8463563919067383,2.7763304710388184,37.950721740722656,0.0053946148021866
200,2.6415789127349854,2.8441052436828613,2.8000876903533936,37.9809799194336,0.0054052933433368
201,2.6545610427856445,2.8338366746902466,2.8000876903533936,38.05455780029297,0.0054023303839904
202,2.6665878295898438,2.83169162273407,2.824700355529785,38.09395980834961,0.0053702322974064
203,2.6795601844787598,2.83420467376709,2.824700355529785,38.13549041748047,0.0053113900312118
204,2.691561460494995,2.8413398265838623,2.849372625350952,38.17794418334961,0.0052238043472915
205,2.7045605182647705,2.8615280389785767,2.849372625350952,38.26244735717773,0.0050957803030237
206,2.716578722000122,2.865718722343445,2.874009609222412,38.30680084228516,0.0049534563613541
207,2.7305610179901123,2.8634626865386963,2.874009609222412,38.35230255126953,0.0047774369285351
208,2.743553400039673,2.850951910018921,2.8987951278686523,38.45498275756836,0.0045752568240475
